1624791857.00
64.000000
-0.00
-0.00
-0.00
-0.00
-0.00
-0.00
-0.00
-0.00
-0.00
-0.00
0.00
0.01
0.01
-0.00
-0.03
-0.05
-0.05
0.00
0.13
0.36
0.66
1.01
1.37
1.72
2.06
2.41
2.79
3.25
3.81
4.45
5.13
5.82
6.46
7.06
7.66
8.32
9.11
10.12
11.31
12.57
13.79
14.87
15.86
16.91
18.22
19.98
22.43
25.40
28.62
31.80
34.73
37.47
40.32
43.71
48.01
53.64
60.32
67.54
74.72
81.45
87.70
93.93
100.83
109.02
119.18
130.96
143.63
156.28
168.17
179.15
189.76
201.31
212.73
226.50
243.45
263.73
285.98
307.04
322.26
326.96
317.85
294.39
259.29
216.58
170.33
123.50
77.33
31.89
-12.60
-55.95
-97.78
-138.19
-177.97
-217.74
-256.81
-292.87
-323.14
-345.07
-358.23
-363.68
-363.32
-358.45
-349.18
-335.30
-316.98
-296.19
-275.51
-257.39
-242.01
-227.65
-211.89
-193.40
-173.55
-155.25
-141.80
-134.16
-131.19
-129.38
-124.97
-115.98
-102.15
-85.68
-68.75
-53.56
-40.31
-28.59
-17.57
-7.03
1.58
6.69
6.52
1.34
-7.41
-16.44
-22.46
-23.54
-19.19
-11.26
-1.79
6.81
13.90
19.27
23.47
26.87
28.79
28.79
25.96
20.85
14.29
8.41
5.13
5.31
8.87
13.86
18.49
20.76
20.56
18.36
15.53
13.28
11.69
10.75
9.52
8.12
6.60
6.17
7.74
11.44
16.71
21.46
24.14
23.20
19.07
12.67
5.88
0.42
-2.97
-3.66
-2.12
1.72
7.34
14.93
24.03
33.54
41.92
46.66
46.27
39.85
28.84
15.34
2.51
-7.03
-12.09
-12.29
-8.85
-2.72
4.68
12.99
21.64
29.89
36.71
40.18
39.17
32.79
22.18
9.00
-3.90
-13.90
-19.57
-20.21
-16.95
-10.94
-3.99
3.27
10.23
16.59
21.86
24.57
23.69
18.15
8.70
-3.26
-14.94
-23.66
-27.92
-27.18
-22.80
-16.18
-9.23
-2.50
3.61
9.07
13.66
16.09
15.44
10.54
1.95
-9.26
-20.55
-29.28
-33.72
-32.93
-27.96
-20.13
-11.67
-3.67
2.95
8.01
11.52
12.76
11.39
6.54
-1.32
-11.43
-21.64
-29.53
-33.33
-31.94
-26.23
-17.49
-8.03
0.97
8.49
14.34
18.59
20.62
20.18
16.47
10.08
1.83
-6.25
-11.99
-14.07
-11.87
-6.63
0.18
6.10
9.76
10.12
7.64
4.01
1.08
1.05
4.30
10.36
16.96
22.28
25.19
25.66
24.81
23.04
20.66
16.74
11.22
4.21
-3.06
-9.08
-13.41
-15.95
-17.99
-20.03
-22.52
-24.55
-25.00
-23.22
-19.07
-13.92
-8.97
-5.89
-5.00
-6.48
-9.38
-12.33
-14.10
-13.05
-8.72
-0.71
9.99
22.48
35.35
46.98
55.99
60.44
59.43
52.35
40.59
26.16
12.12
1.38
-4.53
-4.81
-0.60
6.86
15.51
24.19
31.74
37.40
40.76
40.89
37.65
30.56
20.40
7.97
-4.79
-15.61
-22.70
-24.53
-21.46
-14.43
-5.81
2.67
9.48
14.01
16.45
16.56
14.57
9.93
3.03
-5.77
-14.88
-22.28
-26.42
-26.11
-21.98
-15.00
-7.14
0.63
7.57
13.56
18.65
21.95
22.78
19.80
13.06
3.02
-8.17
-17.79
-23.55
-23.72
-18.74
-9.87
0.18
9.55
16.61
21.00
23.12
22.97
20.87
16.21
9.19
0.02
-9.68
-17.68
-22.18
-21.88
-17.56
-10.64
-3.64
2.10
5.79
7.80
8.90
8.99
7.85
4.26
-1.94
-10.64
-20.08
-27.87
-32.05
-31.23
-26.11
-17.99
-9.28
-1.37
4.72
8.97
11.84
13.09
12.66
9.61
4.05
-3.82
-12.34
-19.34
-23.08
-22.31
-17.70
-10.48
-2.94
3.64
8.25
10.95
12.28
12.21
11.01
8.08
3.70
-2.03
-7.93
-12.59
-15.03
-14.43
-11.46
-6.82
-2.15
1.85
4.43
5.57
5.68
4.80
3.48
1.54
-0.52
-2.77
-4.52
-5.18
-4.51
-2.26
0.64
3.47
4.84
4.49
2.22
-1.24
-4.67
-7.28
-7.99
-6.94
-4.11
-0.46
3.63
7.70
11.37
14.64
16.67
17.13
15.05
10.62
4.01
-3.60
-10.65
-15.93
-18.00
-16.75
-12.04
-4.95
3.77
12.99
21.49
28.30
31.88
31.57
26.68
18.12
7.08
-4.25
-13.62
-19.57
-20.88
-17.94
-11.21
-2.27
7.86
17.83
26.41
32.60
34.96
33.04
26.48
16.57
4.80
-6.40
-14.81
-19.21
-18.85
-14.67
-7.66
0.33
8.30
15.24
20.67
24.48
26.00
25.11
21.08
14.17
4.60
-6.06
-15.57
-21.83
-22.89
-18.85
-10.70
-1.11
7.89
14.67
18.86
21.00
21.15
19.49
15.10
7.92
-2.00
-12.97
-22.46
-28.25
-28.63
-24.11
-16.05
-7.15
0.85
6.73
10.52
12.86
13.72
13.12
10.01
4.27
-4.05
-13.30
-21.13
-25.57
-25.13
-20.48
-12.96
-5.12
1.53
6.00
8.47
9.69
9.69
8.54
5.25
-0.32
-8.20
-16.86
-24.11
-28.08
-27.30
-22.36
-14.42
-5.89
1.80
7.57
11.37
13.67
14.29
13.25
9.69
3.79
-4.17
-12.51
-19.13
-22.44
-21.37
-16.79
-9.95
-3.02
2.94
7.22
9.99
11.72
12.07
10.95
7.47
1.88
-5.50
-13.07
-19.02
-22.07
-21.32
-17.55
-11.70
-5.73
-0.63
2.63
4.05
4.27
3.66
3.11
2.50
2.11
1.38
0.46
-0.33
-0.55
0.63
2.98
6.31
9.24
11.04
10.81
8.68
5.61
2.52
0.82
0.64
2.09
4.11
6.17
7.90
9.19
10.49
11.38
11.67
10.30
7.13
1.94
-4.50
-10.97
-16.51
-19.85
-20.82
-19.03
-15.11
-9.28
-2.23
5.07
11.70
15.98
17.05
14.04
7.72
-0.88
-9.80
-16.99
-21.19
-21.24
-17.43
-10.06
-0.57
10.03
20.36
29.07
35.20
37.40
35.37
28.84
19.04
7.28
-4.30
-13.67
-19.61
-21.20
-18.99
-13.57
-6.47
1.42
9.00
15.44
20.18
22.18
21.10
16.32
8.48
-1.73
-12.47
-21.58
-27.35
-28.26
-24.57
-16.96
-7.43
2.70
12.07
19.93
25.86
28.82
28.33
23.56
15.16
4.12
-7.21
-16.30
-21.38
-21.31
-16.87
-9.20
-0.51
7.93
14.98
20.20
23.57
24.47
22.76
17.65
9.53
-1.08
-12.25
-21.48
-26.73
-26.41
-21.06
-12.02
-1.98
7.26
14.34
19.06
21.94
22.83
21.78
17.85
11.07
1.62
-8.77
-17.72
-23.27
-23.89
-20.15
-13.19
-5.41
1.77
7.26
10.98
13.39
14.23
13.46
10.08
4.10
-4.34
-13.62
-21.44
-25.89
-25.48
-20.81
-13.12
-4.93
2.26
7.35
10.39
12.00
12.16
10.92
7.38
1.50
-6.66
-15.61
-23.23
-27.73
-27.67
-23.47
-16.08
-7.68
0.38
6.94
11.71
14.87
16.00
14.99
10.99
4.26
-4.81
-14.41
-22.25
-26.52
-25.90
-21.08
-13.27
-4.85
2.83
8.74
12.87
15.65
16.83
16.30
13.08
7.24
-1.04
-10.10
-17.79
-22.31
-22.31
-18.34
-11.41
-3.77
3.27
8.49
11.66
13.16
12.98
11.63
8.85
5.15
0.62
-3.76
-6.93
-8.22
-7.08
-4.32
-0.68
2.26
4.02
4.22
3.30
2.09
0.84
0.02
-0.91
-1.91
-3.43
-5.02
-6.06
-6.10
-4.57
-2.12
0.76
2.77
3.58
2.82
0.93
-1.23
-3.27
-4.38
-4.77
-4.15
-3.06
-1.39
0.85
3.48
6.51
9.06
10.68
10.34
8.18
4.32
-0.32
-4.55
-7.77
-9.16
-9.06
-7.43
-5.01
-1.87
1.76
5.54
9.30
12.01
13.18
11.82
8.19
2.47
-4.20
-10.36
-14.89
-16.40
-14.68
-9.54
-2.07
6.91
16.13
24.25
30.33
32.97
31.70
25.97
16.74
5.10
-6.86
-16.93
-23.53
-25.24
-22.19
-14.74
-4.57
7.00
18.27
27.75
34.41
36.89
34.92
28.16
17.73
4.85
-8.24
-19.16
-26.20
-27.91
-24.65
-17.16
-7.54
2.70
12.01
19.37
24.37
26.15
24.55
19.03
10.29
-0.84
-12.24
-21.44
-26.55
-26.14
-20.83
-11.81
-1.58
8.27
16.40
22.35
26.22
27.45
25.82
20.48
11.75
0.28
-11.78
-21.80
-27.71
-28.12
-23.77
-16.07
-7.59
0.15
6.06
10.11
12.84
14.05
13.65
10.64
4.95
-3.30
-12.47
-20.28
-24.83
-24.66
-20.33
-13.01
-5.10
2.03
7.34
10.85
13.05
13.72
12.79
9.31
3.34
-4.92
-13.86
-21.36
-25.76
-25.79
-22.04
-15.46
-8.09
-1.05
4.71
9.02
12.16
13.74
13.68
11.10
6.07
-1.32
-9.65
-16.91
-21.36
-21.46
-17.50
-10.31
-2.06
5.89
12.27
16.77
19.56
20.24
18.72
14.15
6.77
-3.00
-13.31
-21.79
-26.59
-26.35
-21.77
-14.08
-5.72
1.89
7.59
11.26
13.30
13.59
12.34
8.93
3.70
-3.13
-10.19
-15.82
-18.80
-18.21
-14.75
-9.32
-3.77
1.02
4.30
6.12
7.01
6.95
6.27
4.46
1.74
-2.03
-6.00
-9.15
-10.68
-9.84
-7.20
-3.31
0.32
3.10
4.36
4.24
3.35
1.94
0.73
-0.46
-1.25
-1.96
-2.25
-1.83
-0.64
1.57
3.99
6.15
6.89
6.11
3.68
0.30
-3.00
-5.73
-7.10
-7.39
-6.48
-5.02
-2.95
-0.34
2.61
5.90
8.58
10.18
9.66
7.14
2.71
-2.70
-7.77
-11.60
-12.94
-11.72
-7.72
-1.84
5.35
12.93
19.86
25.39
28.17
27.67
23.19
15.50
5.54
-4.81
-13.52
-19.24
-20.68
-18.05
-11.63
-2.90
7.08
16.90
25.27
31.30
33.73
32.27
26.51
17.43
6.04
-5.71
-15.72
-22.49
-24.62
-22.33
-16.05
-7.50
2.07
11.25
18.89
24.31
26.36
24.72
18.85
9.60
-1.98
-13.72
-23.25
-28.88
-29.27
-24.88
-16.55
-6.38
4.19
13.68
21.20
26.37
28.41
27.24
22.32
14.33
3.96
-6.92
-16.10
-21.87
-22.85
-19.53
-12.83
-4.92
2.85
9.29
14.05
17.27
18.44
17.41
13.29
6.31
-3.13
-13.19
-21.50
-26.15
-25.69
-20.73
-12.47
-3.41
4.94
11.36
15.75
18.57
19.66
19.04
15.70
9.55
0.58
-9.62
-18.70
-24.46
-25.06
-20.78
-12.73
-3.53
5.04
11.52
15.66
17.85
17.91
15.85
10.82
3.06
-6.97
-17.37
-25.72
-30.23
-29.74
-25.15
-17.77
-9.92
-2.79
2.81
6.93
9.98
11.53
11.33
8.32
2.57
-5.70
-14.75
-22.34
-26.67
-26.38
-22.10
-14.93
-7.16
-0.09
5.16
8.52
10.40
10.71
9.66
6.68
2.10
-3.92
-10.07
-14.83
-17.12
-16.13
-12.65
-7.53
-2.51
1.73
4.59
6.24
7.15
7.19
6.57
4.77
2.09
-1.47
-4.97
-7.45
-8.31
-7.05
-4.44
-1.10
1.54
3.04
2.91
1.47
-0.51
-2.56
-3.71
-3.94
-2.88
-1.07
1.46
4.51
7.72
11.01
13.40
14.44
13.13
9.65
4.25
-1.93
-7.40
-11.21
-12.26
-10.75
-6.70
-1.20
5.21
11.79
17.81
22.83
25.71
26.01
22.93
16.98
8.76
-0.19
-8.03
-13.44
-15.07
-12.96
-7.35
0.27
8.73
16.64
22.85
26.86
27.81
25.69
20.08
11.60
0.79
-10.77
-21.06
-28.31
-30.72
-28.22
-21.21
-11.67
-1.11
8.81
17.00
22.91
25.52
24.54
19.37
10.81
-0.07
-11.02
-19.61
-24.29
-24.05
-19.76
-12.51
-4.32
3.85
11.14
17.26
22.10
24.73
24.62
20.74
13.41
3.25
-7.62
-16.70
-22.02
-22.13
-17.67
-9.84
-1.12
6.95
13.13
17.24
19.70
20.29
18.99
14.88
7.99
-1.49
-11.82
-20.60
-25.73
-25.62
-20.79
-12.54
-3.51
4.60
10.52
14.20
16.23
16.55
15.26
11.44
5.07
-3.72
-13.31
-21.44
-26.26
-26.36
-22.39
-15.54
-8.15
-1.51
3.44
6.74
8.80
9.22
7.74
3.32
-3.91
-13.54
-23.63
-31.78
-36.17
-35.51
-30.53
-22.40
-13.40
-4.80
2.20
7.28
10.58
11.81
11.24
8.55
4.40
-0.84
-5.88
-9.50
-10.99
-9.81
-6.80
-2.68
1.01
3.74
4.93
4.75
3.85
2.46
1.31
0.23
-0.41
-0.97
-1.13
-0.64
0.60
2.85
5.30
7.44
8.03
6.82
3.53
-1.17
-6.06
-10.10
-11.73
-10.59
-6.27
0.27
8.24
16.45
23.72
29.32
32.05
31.57
27.25
19.82
10.04
-0.37
-9.42
-15.63
-17.46
-14.89
-8.10
1.33
12.14
22.65
31.39
37.40
39.44
37.32
30.76
20.86
8.76
-3.45
-13.57
-20.07
-21.71
-18.97
-12.66
-4.79
3.43
10.81
16.79
21.24
23.38
22.86
18.69
11.08
0.42
-11.33
-21.58
-28.04
-28.83
-24.25
-15.47
-5.27
4.35
11.70
16.33
18.67
18.65
16.49
11.49
3.89
-5.98
-16.34
-24.92
-29.97
-30.27
-26.64
-20.29
-13.45
-7.19
-2.21
1.58
4.52
6.03
5.65
2.17
-4.31
-13.37
-23.00
-30.73
-34.69
-33.64
-28.40
-20.31
-11.74
-3.93
2.18
6.57
9.58
10.80
10.05
6.48
0.42
-7.69
-16.07
-22.78
-26.47
-26.18
-22.69
-16.87
-10.53
-4.59
-0.07
2.73
3.97
3.60
2.35
0.37
-1.43
-2.82
-3.00
-1.53
1.51
5.86
10.08
13.14
13.63
11.63
7.49
2.51
-1.69
-4.10
-3.62
-0.40
5.50
12.87
20.93
28.54
34.72
39.02
40.62
39.63
35.70
29.49
21.31
12.26
3.74
-3.04
-6.48
-6.29
-2.30
4.21
12.24
20.43
27.66
33.19
35.73
34.73
29.30
19.99
7.67
-5.37
-16.28
-22.77
-23.11
-17.85
-8.59
1.45
9.80
14.59
15.66
14.22
11.34
8.24
4.55
-0.03
-6.43
-14.21
-21.97
-28.04
-30.61
-29.69
-25.91
-21.25
-16.72
-13.02
-9.93
-7.06
-5.12
-4.94
-8.07
-14.57
-23.85
-33.60
-41.11
-44.56
-42.93
-37.24
-28.70
-19.32
-9.84
-0.96
7.06
13.79
17.86
18.31
14.02
5.69
-5.42
-16.56
-25.07
-29.26
-28.33
-23.44
-15.85
-7.63
0.30
7.03
12.23
15.84
17.34
16.91
14.35
10.53
5.93
1.72
-1.16
-2.26
-1.16
1.40
4.95
8.14
10.47
11.20
10.37
8.59
6.35
4.79
4.08
4.65
5.86
7.59
9.56
11.59
13.85
15.61
16.49
15.34
11.96
6.12
-1.35
-8.91
-15.07
-17.82
-16.50
-10.72
-1.79
8.92
19.57
28.48
34.65
36.94
35.26
29.38
20.37
9.28
-1.95
-11.30
-17.37
-18.91
-16.21
-9.71
-1.01
8.85
18.51
26.88
33.12
35.87
34.60
28.54
18.37
5.08
-9.03
-21.11
-28.83
-30.28
-25.78
-16.66
-6.00
3.75
10.56
13.88
14.41
12.66
9.47
4.50
-2.11
-10.47
-19.35
-26.84
-31.24
-31.13
-27.05
-20.07
-12.37
-5.06
1.14
6.39
11.05
14.39
15.71
13.51
7.63
-1.53
-11.87
-20.74
-26.05
-26.34
-22.26
-14.98
-6.76
1.14
7.63
12.39
15.39
15.87
13.49
7.48
-1.48
-12.43
-23.08
-31.06
-34.86
-33.68
-28.53
-20.59
-11.83
-3.08
4.92
11.87
17.51
20.68
20.64
16.28
8.08
-2.99
-14.41
-23.40
-27.96
-26.90
-21.23
-12.53
-3.46
4.44
10.01
13.28
14.94
15.19
14.54
12.48
9.20
4.51
-0.72
-5.27
-8.08
-8.09
-5.69
-1.44
2.97
6.66
8.75
9.25
8.73
7.35
5.66
3.21
0.19
-3.68
-7.66
-10.78
-12.22
-11.21
-8.41
-4.51
-1.14
1.09
1.55
0.54
-1.22
-3.40
-5.14
-6.42
-6.61
-5.80
-3.59
0.07
4.70
9.72
13.61
15.56
14.59
11.30
6.45
1.51
-2.12
-3.96
-3.51
-1.38
2.32
6.82
12.05
17.60
22.86
27.39
29.97
30.19
27.26
21.58
13.47
4.19
-4.57
-11.28
-14.12
-12.69
-7.00
1.28
10.57
19.07
25.46
29.28
29.82
27.19
20.98
11.85
0.42
-11.58
-21.91
-28.73
-30.33
-26.80
-18.81
-8.52
2.36
12.06
19.48
24.22
25.59
23.61
17.83
8.91
-2.49
-14.48
-24.70
-31.18
-32.26
-28.21
-20.01
-10.10
-0.27
7.93
13.88
17.69
18.99
17.82
13.45
6.19
-3.50
-13.73
-22.03
-26.43
-25.42
-19.65
-10.47
-0.50
8.59
15.57
20.30
23.27
24.24
23.15
18.98
11.69
1.48
-9.83
-19.69
-25.90
-26.74
-22.72
-15.10
-6.53
1.30
7.10
10.75
12.80
13.13
11.78
7.89
1.57
-7.00
-16.17
-23.79
-28.20
-28.12
-24.20
-17.43
-9.87
-2.59
3.52
8.25
11.63
12.89
11.61
6.81
-1.09
-11.34
-21.78
-29.85
-33.74
-32.31
-26.50
-17.87
-9.16
-2.11
1.97
3.34
3.30
2.96
3.56
4.68
5.87
5.87
4.65
3.01
1.99
2.72
4.61
6.68
7.06
5.39
2.14
-1.10
-2.69
-2.51
-1.16
-0.63
-1.83
-5.29
-9.84
-13.75
-15.68
-14.70
-11.55
-7.05
-2.92
0.18
1.49
1.20
-0.05
-1.80
-2.96
-3.33
-2.29
-0.23
2.85
6.69
10.80
14.91
17.92
19.24
17.85
13.96
7.92
1.01
-5.12
-9.35
-10.39
-8.32
-3.15
3.92
12.13
20.34
27.52
32.98
35.49
34.72
30.04
22.12
11.65
0.33
-9.83
-17.20
-20.10
-18.49
-12.69
-4.51
4.66
13.25
20.23
25.12
27.07
25.92
21.07
13.19
3.02
-7.52
-16.16
-21.27
-21.58
-17.70
-10.63
-2.53
5.31
11.80
16.65
19.99
21.30
20.37
16.25
9.07
-0.84
-11.65
-20.91
-26.55
-27.00
-22.87
-15.49
-7.53
-0.65
3.99
6.50
7.67
7.60
6.42
3.17
-2.29
-9.99
-18.44
-25.46
-29.27
-28.49
-23.76
-16.30
-8.40
-1.34
4.00
7.74
10.35
11.51
10.95
7.52
1.20
-7.79
-17.60
-25.81
-30.36
-29.73
-24.49
-15.84
-6.31
2.37
8.68
12.28
13.70
13.35
12.21
10.21
7.68
4.25
0.62
-1.97
-2.33
0.67
6.20
12.79
17.84
20.14
19.45
17.04
14.54
12.10
9.12
3.51
-5.53
-17.90
-31.14
-42.10
-48.23
-48.12
-42.83
-34.04
-24.47
-15.76
-9.41
-5.81
-4.74
-5.86
-7.91
-10.16
-11.23
-10.70
-7.87
-2.70
4.14
11.66
17.81
21.19
20.44
16.09
9.16
1.68
-4.22
-7.30
-6.47
-1.97
6.01
16.21
27.78
39.29
49.20
56.23
58.73
56.25
48.44
36.57
22.07
7.40
-4.83
-12.75
-14.88
-11.75
-4.55
4.11
12.29
18.38
21.87
23.18
22.33
19.69
14.60
7.12
-2.78
-13.60
-23.01
-28.80
-29.08
-24.17
-15.39
-5.69
2.81
8.54
11.44
12.47
12.08
10.80
7.85
3.04
-3.92
-11.86
-18.89
-23.33
-23.77
-20.70
-15.00
-8.58
-2.29
3.27
8.11
12.27
14.66
14.36
9.91
1.49
-10.07
-22.20
-31.88
-36.86
-35.74
-29.39
-19.42
-8.60
1.26
8.80
13.77
16.61
17.19
15.71
11.42
4.56
-4.61
-14.26
-22.04
-25.96
-24.65
-18.90
-10.23
-1.38
6.03
10.91
13.43
14.40
14.02
12.58
9.35
4.46
-2.04
-8.83
-14.21
-16.93
-16.12
-12.60
-7.43
-2.58
1.07
2.91
3.34
3.28
3.08
3.24
3.08
2.34
0.29
-2.76
-5.98
-8.37
-8.58
-6.58
-2.51
2.09
6.23
8.68
9.15
8.16
6.18
4.36
2.87
2.25
2.08
2.52
3.65
5.42
7.90
10.14
11.52
10.84
8.20
3.86
-1.07
-5.31
-8.41
-9.88
-10.34
-9.84
-8.95
-7.39
-5.02
-1.98
1.62
4.70
6.66
6.46
4.17
-0.14
-5.53
-10.63
-14.31
-15.06
-12.61
-6.83
1.00
9.79
18.19
25.00
29.73
31.44
30.03
25.04
17.23
7.41
-2.77
-11.48
-17.57
-19.96
-18.96
-14.83
-8.84
-1.78
5.32
11.48
16.16
18.31
17.73
13.83
7.15
-1.91
-11.96
-21.17
-27.93
-30.44
-28.47
-22.21
-13.38
-3.37
6.24
14.27
20.07
22.55
21.38
15.99
7.36
-3.33
-13.80
-21.76
-25.91
-25.42
-21.15
-13.94
-5.41
3.76
12.72
20.82
27.40
31.04
30.99
26.40
17.99
6.84
-4.72
-14.14
-19.62
-19.87
-15.59
-7.95
0.63
8.64
14.83
18.87
21.08
21.17
19.18
14.37
6.93
-2.80
-13.03
-21.38
-25.86
-24.97
-19.35
-10.34
-0.59
8.21
14.81
19.12
21.68
22.35
21.14
17.08
10.17
0.61
-9.84
-18.72
-24.02
-24.24
-20.00
-12.64
-4.67
2.36
7.42
10.58
12.53
13.24
12.73
9.98
4.82
-2.83
-11.48
-18.88
-23.00
-22.17
-16.87
-8.33
0.82
8.88
14.59
17.98
19.77
20.08
19.06
15.76
10.01
1.73
-7.60
-15.69
-20.54
-20.53
-16.21
-8.84
-0.99
5.78
10.40
12.97
14.20
14.03
12.42
8.31
1.60
-7.59
-17.53
-25.72
-30.12
-29.21
-23.69
-15.01
-5.85
2.15
7.89
11.41
13.37
13.68
12.35
8.43
1.95
-6.87
-16.30
-24.07
-28.32
-27.69
-22.79
-14.74
-5.81
2.66
9.56
14.72
18.40
20.20
19.99
16.82
10.78
2.09
-7.53
-15.72
-20.45
-20.11
-15.15
-6.78
2.42
10.76
16.90
20.69
22.63
22.68
20.94
16.58
9.65
0.32
-9.75
-18.22
-23.14
-23.00
-18.38
-10.54
-1.99
5.71
11.38
14.91
16.76
16.75
14.90
10.35
3.29
-5.99
-15.73
-23.67
-27.99
-27.36
-22.43
-14.40
-5.61
2.53
8.92
13.45
16.46
17.64
16.90
13.30
6.93
-1.93
-11.46
-19.29
-23.48
-22.67
-17.59
-9.65
-1.44
5.56
10.27
12.82
13.95
13.79
12.64
9.85
5.57
-0.25
-6.47
-11.59
-14.46
-14.06
-10.88
-5.60
0.10
5.39
9.45
12.21
14.01
14.57
13.99
11.46
7.02
0.58
-6.67
-12.98
-16.73
-16.42
-12.34
-5.32
2.42
9.38
14.21
16.62
17.11
15.81
13.32
9.36
4.43
-1.35
-6.87
-10.90
-12.63
-11.47
-8.24
-3.74
0.50
4.01
6.43
8.04
9.29
9.81
9.43
7.18
3.09
-2.84
-9.34
-14.83
-18.06
-17.91
-14.82
-9.40
-3.38
2.30
6.60
9.26
10.52
10.24
8.86
6.07
2.37
-2.15
-6.56
-9.81
-11.23
-10.14
-7.20
-2.99
1.03
4.36
6.52
7.74
8.53
8.70
8.29
6.46
3.24
-1.54
-6.89
-11.52
-14.36
-14.38
-11.96
-7.54
-2.64
1.99
5.47
7.60
8.64
8.48
7.53
5.49
2.78
-0.67
-4.11
-6.69
-7.82
-6.82
-4.24
-0.53
2.97
5.82
7.52
8.30
8.66
8.48
7.85
6.01
2.98
-1.43
-6.34
-10.54
-13.06
-12.89
-10.42
-6.06
-1.30
3.16
6.43
8.36
9.25
9.02
8.14
6.29
3.85
0.72
-2.43
-4.78
-5.78
-4.78
-2.33
1.11
4.19
6.52
7.69
7.96
7.90
7.38
6.48
4.41
1.20
-3.34
-8.27
-12.40
-14.77
-14.41
-11.75
-7.21
-2.25
2.47
6.10
8.47
9.79
9.86
8.98
6.76
3.61
-0.47
-4.64
-7.92
-9.65
-9.05
-6.62
-2.74
1.23
4.82
7.41
9.03
10.02
10.08
9.23
6.70
2.59
-3.16
-9.43
-14.76
-17.94
-17.81
-14.73
-9.23
-2.97
3.14
8.07
11.52
13.65
14.19
13.35
10.64
6.45
0.88
-4.98
-9.79
-12.51
-12.17
-9.20
-4.19
1.20
6.15
9.80
12.06
13.27
13.23
12.07
9.08
4.41
-1.97
-8.90
-14.79
-18.28
-18.10
-14.58
-8.37
-1.36
5.29
10.43
13.78
15.61
15.76
14.50
11.30
6.46
0.04
-6.79
-12.50
-15.85
-15.71
-12.52
-6.98
-0.92
4.70
8.98
11.82
13.57
13.89
12.72
9.14
3.19
-5.01
-13.90
-21.31
-25.37
-24.63
-19.63
-11.58
-3.00
4.56
9.92
13.06
14.63
14.69
13.48
10.24
5.02
-2.18
-10.00
-16.55
-20.21
-19.66
-15.40
-8.38
-0.77
6.14
11.29
14.61
16.59
17.13
16.31
13.25
7.89
0.19
-8.43
-15.89
-20.31
-20.09
-15.64
-8.02
0.35
7.93
13.52
17.00
18.87
18.99
17.40
13.12
6.16
-3.35
-13.66
-22.27
-27.01
-26.21
-20.43
-11.12
-1.12
7.64
13.81
17.32
18.88
18.56
16.55
11.99
4.89
-4.58
-14.69
-23.03
-27.59
-26.88
-21.57
-13.02
-3.81
4.44
10.59
14.59
17.03
17.84
17.11
13.94
8.34
0.39
-8.38
-15.78
-20.02
-19.71
-15.41
-8.30
-0.74
5.89
10.60
13.48
15.18
15.71
15.17
12.59
7.80
0.63
-7.59
-14.80
-19.08
-18.80
-14.32
-6.69
1.62
9.01
14.24
17.25
18.65
18.48
16.88
12.98
6.73
-1.86
-11.21
-19.07
-23.46
-22.88
-17.92
-9.91
-1.43
5.91
11.00
13.92
15.39
15.39
13.98
10.12
3.65
-5.42
-15.47
-24.04
-28.91
-28.33
-22.76
-13.54
-3.51
5.37
11.62
15.10
16.56
16.23
14.50
10.61
4.51
-3.80
-12.82
-20.28
-24.17
-22.95
-17.28
-8.57
0.47
8.17
13.45
16.48
18.09
18.34
17.27
13.83
7.83
-0.71
-10.19
-18.26
-22.92
-22.67
-18.17
-10.76
-3.02
3.47
7.68
9.77
10.60
10.34
9.23
6.36
1.57
-5.30
-12.94
-19.30
-22.55
-21.18
-15.66
-7.13
2.01
10.26
16.47
20.59
23.12
23.87
22.80
18.95
12.35
3.20
-6.73
-15.06
-19.81
-19.54
-14.95
-7.38
0.54
7.24
11.63
13.85
14.71
14.37
13.03
9.78
4.41
-3.28
-11.90
-19.25
-23.23
-22.09
-16.22
-6.88
3.17
12.05
18.38
22.06
23.78
23.62
21.73
17.21
10.04
0.32
-10.28
-19.35
-24.85
-25.15
-20.76
-12.85
-3.94
4.34
10.68
14.83
17.14
17.43
15.77
11.41
4.52
-4.57
-14.08
-21.62
-25.21
-23.42
-16.96
-7.34
2.64
11.19
17.05
20.26
21.64
21.38
19.73
15.76
9.24
0.01
-10.46
-19.79
-25.69
-26.23
-21.75
-13.55
-4.47
3.52
8.99
11.94
13.16
12.81
11.12
7.17
0.89
-7.60
-16.63
-23.79
-27.12
-25.23
-18.87
-9.47
0.38
9.14
15.72
20.11
22.81
23.62
22.48
18.48
11.71
2.45
-7.51
-15.77
-20.41
-19.98
-15.18
-7.33
1.01
8.32
13.48
16.53
18.08
18.06
16.51
12.48
5.94
-3.01
-12.67
-20.59
-24.65
-23.22
-16.90
-7.17
3.12
12.06
18.32
21.86
23.42
23.11
21.07
16.37
8.92
-1.17
-12.17
-21.54
-27.10
-27.19
-22.43
-14.24
-5.40
2.31
7.68
10.75
12.31
12.45
11.33
7.97
2.20
-6.05
-15.23
-22.97
-27.13
-25.93
-19.80
-9.98
0.79
10.65
18.12
22.95
25.63
26.11
24.53
20.07
12.84
3.05
-7.55
-16.56
-21.96
-22.20
-17.88
-10.31
-2.05
5.28
10.48
13.51
14.97
14.85
13.31
9.49
3.41
-4.86
-13.75
-20.98
-24.60
-23.10
-17.10
-7.94
1.68
10.08
16.06
19.64
21.51
21.64
20.11
15.93
9.06
-0.37
-10.63
-19.25
-24.17
-23.91
-19.17
-11.41
-3.34
3.41
7.80
10.07
11.15
11.26
10.61
8.22
3.80
-2.91
-10.65
-17.35
-21.10
-20.29
-15.26
-7.06
1.94
10.16
16.39
20.45
22.80
23.29
21.93
17.78
10.85
1.27
-9.24
-18.22
-23.57
-23.65
-19.06
-11.20
-2.80
4.40
9.19
11.70
12.73
12.45
11.06
7.61
1.98
-5.86
-14.36
-21.25
-24.60
-22.93
-16.91
-7.94
1.35
9.37
15.03
18.49
20.49
21.10
20.38
17.30
11.65
3.38
-6.03
-14.33
-19.55
-20.13
-16.54
-9.95
-2.76
3.53
7.86
10.29
11.51
11.55
10.51
7.44
2.21
-5.26
-13.57
-20.59
-24.41
-23.46
-18.15
-9.58
-0.18
8.49
15.15
19.65
22.43
23.30
22.30
18.53
12.07
3.07
-6.77
-15.17
-20.19
-20.34
-16.19
-8.96
-1.14
5.76
10.61
13.40
14.73
14.56
12.98
9.13
3.00
-5.33
-14.26
-21.58
-25.42
-24.32
-18.92
-10.50
-1.59
6.28
12.02
15.67
17.85
18.50
17.60
14.17
8.11
-0.50
-10.03
-18.13
-22.77
-22.38
-17.49
-9.37
-0.58
7.22
12.83
16.18
17.90
17.96
16.49
12.59
6.24
-2.48
-11.96
-19.92
-24.38
-23.80
-18.77
-10.58
-1.81
5.91
11.42
14.74
16.53
16.79
15.64
12.14
6.27
-1.94
-10.91
-18.46
-22.70
-22.23
-17.67
-10.26
-2.44
4.38
9.18
12.09
13.78
14.21
13.42
10.39
4.98
-2.87
-11.66
-19.18
-23.48
-22.96
-18.07
-9.98
-1.16
6.79
12.66
16.37
18.48
18.95
17.88
14.35
8.35
-0.10
-9.43
-17.42
-22.12
-21.98
-17.48
-9.76
-1.26
6.49
12.30
16.03
18.12
18.37
16.79
12.48
5.56
-3.73
-13.61
-21.72
-26.09
-25.30
-20.02
-11.58
-2.57
5.49
11.46
15.37
17.76
18.47
17.44
13.67
7.19
-1.81
-11.53
-19.59
-24.07
-23.55
-18.74
-10.95
-2.72
4.49
9.55
12.52
14.03
14.16
13.22
10.49
6.09
-0.06
-6.78
-12.43
-15.67
-15.29
-11.80
-6.00
0.22
5.85
10.04
12.80
14.55
15.01
14.11
10.90
5.39
-2.32
-10.74
-17.85
-21.95
-21.71
-17.63
-10.73
-3.24
3.53
8.44
11.37
12.80
12.75
11.60
8.90
4.97
-0.16
-5.45
-9.62
-11.79
-11.16
-8.41
-4.25
-0.26
2.99
4.98
5.97
6.51
6.50
6.06
4.38
1.48
-2.88
-7.79
-12.03
-14.55
-14.30
-11.60
-6.86
-1.62
3.38
7.19
9.59
10.82
10.76
9.83
7.73
4.94
1.43
-2.01
-4.55
-5.65
-4.75
-2.47
0.67
3.33
5.14
5.64
5.12
4.14
2.73
1.26
-0.74
-3.05
-5.89
-8.58
-10.42
-10.92
-9.52
-6.86
-3.35
-0.28
1.94
2.72
2.23
1.03
-0.58
-1.79
-2.61
-2.59
-2.08
-0.90
0.98
3.37
6.26
8.69
10.17
9.69
7.40
3.52
-0.96
-4.85
-7.64
-8.73
-8.64
-7.46
-5.89
-3.87
-1.34
1.56
4.80
7.39
8.80
8.01
5.20
0.60
-4.72
-9.40
-12.62
-13.37
-11.84
-8.04
-2.98
2.87
8.85
14.26
18.75
21.26
21.38
18.37
12.75
5.13
-2.95
-9.76
-14.27
-15.47
-13.74
-9.39
-3.69
2.68
8.93
14.35
18.63
20.79
20.55
17.18
11.15
2.82
-6.40
-14.80
-20.97
-23.34
-21.74
-16.21
-8.09
1.55
11.33
19.93
26.42
29.33
28.12
22.20
12.59
0.65
-11.25
-20.68
-26.14
-26.51
-22.43
-14.64
-4.97
5.41
15.15
23.19
28.84
30.98
29.35
23.53
14.45
3.13
-8.35
-17.74
-23.48
-24.33
-20.85
-13.97
-5.80
2.38
9.41
14.84
18.69
20.36
19.68
15.84
9.13
-0.03
-9.87
-18.12
-22.99
-22.95
-18.42
-10.35
-1.01
8.11
15.65
21.16
24.72
25.90
24.58
19.92
12.15
1.66
-9.69
-19.39
-25.36
-25.97
-21.80
-14.15
-5.68
1.96
7.56
11.11
13.26
13.96
13.24
10.11
4.46
-3.65
-12.61
-20.16
-24.39
-23.86
-19.19
-11.59
-3.49
3.71
9.01
12.48
14.71
15.54
14.92
11.84
6.23
-1.83
-10.79
-18.46
-23.04
-23.09
-19.13
-12.24
-4.64
2.34
7.69
11.28
13.44
13.74
12.01
7.27
-0.30
-10.27
-20.63
-28.87
-33.01
-31.74
-25.96
-17.20
-8.19
-0.46
4.98
8.29
10.26
10.89
10.30
7.57
2.66
-4.39
-12.09
-18.51
-22.05
-21.54
-17.61
-11.28
-4.59
1.38
5.69
8.30
9.66
9.72
8.90
6.79
3.83
0.04
-3.61
-6.12
-6.88
-5.43
-2.63
0.75
3.18
4.30
3.77
2.11
0.17
-1.71
-2.89
-3.69
-3.88
-3.91
-3.48
-2.38
-0.55
2.16
4.89
7.13
7.59
6.05
2.17
-3.30
-8.98
-13.55
-15.19
-13.42
-7.96
-0.10
9.06
18.09
25.76
31.38
33.81
32.70
27.49
19.05
8.44
-2.32
-11.14
-16.70
-17.89
-15.09
-8.64
0.05
10.06
20.08
28.78
35.13
37.72
36.16
30.09
20.57
8.71
-3.43
-13.67
-20.41
-22.29
-19.66
-13.26
-5.14
3.36
10.88
16.77
20.91
22.65
21.79
17.57
10.35
0.66
-9.64
-18.17
-23.09
-22.98
-18.44
-10.68
-2.15
5.64
11.56
15.54
18.11
19.15
18.66
15.66
10.03
1.73
-7.79
-16.42
-22.28
-23.79
-21.32
-15.75
-9.25
-3.08
1.70
4.95
6.95
7.29
5.77
1.45
-5.49
-14.65
-24.19
-31.77
-35.60
-34.42
-28.98
-20.53
-11.43
-3.02
3.71
8.67
12.21
13.95
13.74
10.60
4.66
-3.76
-12.86
-20.30
-24.23
-23.33
-18.31
-10.47
-2.25
4.98
10.20
13.45
15.31
15.69
14.69
11.54
6.41
-0.52
-7.81
-13.64
-16.71
-16.05
-12.50
-7.09
-1.80
2.50
5.13
6.35
6.84
6.65
6.08
4.47
1.93
-1.79
-5.84
-9.18
-10.94
-10.31
-7.85
-4.13
-0.69
1.79
2.57
1.79
0.11
-2.01
-3.53
-4.36
-3.98
-2.84
-0.89
1.69
4.61
7.82
10.41
11.92
11.32
8.71
4.17
-1.32
-6.41
-10.17
-11.48
-10.40
-6.89
-1.95
3.92
9.97
15.47
20.02
22.58
22.79
19.84
14.17
6.18
-2.73
-10.80
-16.61
-18.59
-16.57
-10.63
-2.25
7.36
16.67
24.41
29.83
31.85
30.24
24.56
15.66
4.46
-7.11
-16.91
-23.43
-25.27
-22.68
-16.12
-7.33
2.48
11.85
19.66
25.24
27.51
26.21
20.84
12.20
1.18
-10.17
-19.56
-25.27
-25.94
-22.07
-14.63
-5.82
2.93
10.38
16.03
19.88
21.33
20.16
15.58
8.00
-1.95
-12.23
-20.36
-24.50
-23.41
-17.92
-9.41
-0.37
7.84
14.29
18.99
22.37
23.98
23.46
19.65
12.54
2.51
-8.45
-17.71
-23.17
-23.36
-19.00
-11.50
-3.45
3.61
8.60
11.58
13.23
13.47
12.34
8.88
3.01
-5.19
-14.14
-21.62
-25.78
-25.23
-20.67
-13.38
-5.79
0.71
5.20
7.88
9.42
9.70
8.63
5.15
-0.84
-9.24
-18.33
-25.75
-29.59
-28.48
-23.23
-15.24
-7.09
-0.19
4.52
7.25
8.79
9.20
8.65
6.30
2.20
-3.66
-9.99
-15.15
-17.91
-17.32
-14.10
-9.12
-4.19
-0.05
2.63
4.03
4.76
4.79
4.42
3.03
0.70
-2.82
-6.76
-10.09
-11.91
-11.35
-8.92
-5.24
-1.99
-0.01
-0.20
-2.38
-5.63
-9.04
-11.10
-11.37
-9.32
-5.64
-0.73
4.79
10.20
15.13
18.45
19.63
17.80
13.47
7.23
0.50
-5.25
-9.24
-10.59
-9.48
-5.62
0.53
8.93
18.83
28.92
37.63
42.72
43.11
38.07
28.83
16.93
4.91
-4.75
-10.49
-11.07
-7.06
0.62
9.77
18.77
26.11
30.96
33.27
32.66
29.35
22.90
13.80
2.50
-9.26
-19.13
-25.09
-25.42
-20.57
-11.80
-1.89
7.20
14.01
18.34
20.82
21.41
20.18
16.05
8.88
-1.30
-12.76
-22.92
-29.55
-30.91
-27.51
-20.63
-12.92
-6.00
-1.03
2.01
3.75
4.10
3.06
-0.37
-6.20
-14.33
-23.16
-30.52
-34.63
-34.10
-29.52
-21.92
-13.47
-5.39
1.31
6.44
10.15
11.83
11.16
7.13
-0.02
-9.75
-19.99
-28.26
-32.62
-31.81
-26.66
-18.53
-9.96
-2.40
2.95
5.99
7.28
7.04
5.93
3.78
1.11
-2.06
-4.87
-6.47
-6.37
-4.19
-0.87
2.80
5.32
6.31
5.50
3.49
1.24
-0.75
-1.71
-1.87
-1.04
0.21
2.03
4.41
7.21
10.42
13.04
14.49
13.65
10.54
5.21
-1.32
-7.53
-12.22
-13.79
-11.96
-6.47
1.50
10.99
20.57
28.88
35.02
37.67
36.48
30.97
22.09
10.91
-0.55
-10.11
-16.29
-17.86
-15.20
-8.92
-0.79
8.02
16.20
22.88
27.62
29.51
28.34
23.52
15.69
5.47
-5.34
-14.62
-20.73
-22.24
-19.50
-13.31
-5.75
1.84
8.29
13.21
16.71
18.32
17.84
14.37
8.04
-0.82
-10.49
-18.69
-23.60
-23.79
-19.86
-12.90
-5.24
1.80
7.18
10.89
13.40
14.49
14.11
11.29
5.99
-1.73
-10.34
-17.75
-22.20
-22.33
-18.71
-12.42
-5.69
0.28
4.61
7.38
9.06
9.33
7.96
3.87
-2.92
-12.12
-21.81
-29.52
-33.31
-31.90
-26.21
-17.78
-9.26
-2.04
2.95
5.96
7.72
8.18
7.39
4.46
-0.51
-7.37
-14.61
-20.47
-23.60
-23.06
-19.55
-13.94
-8.06
-2.82
0.85
2.82
3.47
2.93
1.99
0.67
-0.41
-1.36
-1.72
-1.15
0.42
3.14
6.08
8.60
9.39
8.34
5.41
1.46
-2.22
-4.91
-5.71
-4.92
-2.58
0.43
3.90
7.56
11.11
14.52
16.87
17.78
16.25
12.43
6.43
-0.68
-7.41
-12.57
-14.58
-13.14
-8.02
-0.37
8.88
18.30
26.54
32.65
35.33
34.20
28.77
20.00
8.91
-2.49
-12.06
-18.36
-20.09
-17.57
-11.30
-2.95
6.31
15.12
22.44
27.66
29.73
28.42
23.19
14.77
3.92
-7.49
-17.21
-23.49
-24.79
-21.41
-14.19
-5.36
3.53
11.10
16.74
20.47
21.72
20.35
15.55
7.69
-2.63
-13.36
-21.97
-26.50
-25.63
-20.17
-11.54
-2.34
5.92
12.14
16.34
19.11
20.29
19.86
16.80
11.02
2.56
-7.04
-15.57
-21.11
-22.12
-19.04
-12.88
-5.92
0.49
5.29
8.39
10.18
10.33
8.71
4.34
-2.64
-11.91
-21.60
-29.33
-33.25
-32.09
-26.69
-18.45
-9.88
-2.33
3.31
7.15
9.79
10.94
10.42
7.08
0.90
-7.88
-17.39
-25.18
-29.27
-28.28
-23.01
-14.83
-6.29
1.14
6.38
9.45
11.00
11.08
10.06
7.39
3.38
-1.87
-7.18
-11.19
-12.97
-11.83
-8.62
-4.18
-0.20
2.72
4.07
4.15
3.67
2.77
1.95
0.78
-0.52
-2.23
-3.79
-4.58
-4.24
-2.37
0.19
2.80
4.05
3.61
1.15
-2.68
-6.67
-9.88
-10.96
-9.74
-5.95
-0.55
5.85
12.43
18.36
23.21
25.89
25.97
22.64
16.42
7.90
-1.31
-9.32
-14.77
-16.22
-13.70
-7.31
1.57
11.87
22.09
30.84
37.13
39.61
37.97
31.80
22.11
9.99
-2.51
-13.13
-20.27
-22.50
-20.13
-13.83
-5.58
3.25
11.25
17.57
21.92
23.53
22.29
17.58
9.99
0.18
-9.96
-18.20
-22.87
-22.64
-18.06
-10.13
-1.05
7.80
15.26
20.93
24.90
26.56
25.65
21.21
13.44
2.77
-8.85
-18.89
-25.28
-26.49
-23.08
-16.31
-8.73
-1.88
3.09
6.21
8.08
8.63
7.89
4.91
-0.37
-7.91
-16.15
-22.96
-26.60
-25.82
-21.34
-14.40
-7.29
-1.17
3.19
6.04
7.98
8.71
7.99
4.65
-1.41
-9.98
-19.23
-26.74
-30.55
-29.30
-23.79
-15.45
-6.84
0.62
5.95
9.28
11.23
11.76
10.97
8.05
3.20
-3.43
-10.36
-15.86
-18.68
-17.93
-14.44
-9.18
-4.02
0.25
2.94
4.23
4.71
4.43
3.82
2.39
0.37
-2.44
-5.29
-7.34
-7.94
-6.48
-3.68
-0.20
2.44
3.71
3.11
1.04
-1.55
-4.05
-5.37
-5.49
-4.04
-1.67
1.51
5.17
8.87
12.48
15.04
16.11
14.72
11.08
5.40
-1.18
-7.20
-11.65
-13.29
-12.14
-8.11
-2.21
4.95
12.43
19.24
24.70
27.58
27.46
23.70
17.04
8.20
-1.16
-9.25
-14.82
-16.59
-14.65
-9.12
-1.32
7.86
17.14
25.31
31.43
34.07
32.73
26.82
17.34
5.47
-6.55
-16.34
-22.25
-22.97
-18.95
-10.99
-1.15
9.08
18.15
25.07
29.48
30.67
28.65
22.97
14.28
3.19
-8.45
-18.36
-24.64
-25.74
-22.07
-14.75
-6.25
1.78
8.08
12.43
15.23
16.20
15.22
11.25
4.28
-5.39
-15.84
-24.46
-29.05
-28.05
-22.15
-12.83
-2.91
5.83
12.15
16.07
18.32
18.97
18.15
14.91
9.12
0.70
-8.87
-17.41
-22.98
-24.00
-20.86
-14.56
-7.36
-0.64
4.52
7.98
10.09
10.52
9.14
5.02
-1.72
-10.76
-20.35
-28.18
-32.43
-31.77
-26.85
-18.87
-10.18
-2.10
4.30
8.92
12.08
13.37
12.64
8.91
2.37
-6.59
-16.04
-23.57
-27.29
-25.95
-20.40
-12.07
-3.51
3.89
9.17
12.50
14.53
15.23
14.72
12.19
7.73
1.45
-5.31
-10.83
-13.86
-13.44
-10.32
-5.36
-0.39
3.85
6.69
8.28
9.11
9.07
8.34
6.29
3.12
-1.26
-5.91
-9.69
-11.71
-11.18
-8.67
-4.75
-0.96
2.04
3.52
3.55
2.70
1.19
-0.22
-1.64
-2.60
-3.40
-3.67
-3.16
-1.82
0.56
3.16
5.51
6.43
5.83
3.58
0.35
-2.82
-5.43
-6.67
-6.78
-5.64
-3.88
-1.51
1.36
4.47
7.77
10.30
11.62
10.74
7.80
2.90
-2.96
-8.41
-12.43
-13.66
-11.95
-7.12
-0.20
8.04
16.44
23.79
29.26
31.53
30.27
25.04
16.87
6.92
-2.91
-10.72
-15.49
-16.25
-13.43
-7.26
1.08
10.92
21.18
30.61
38.07
41.76
40.83
34.43
23.34
8.78
-6.78
-20.33
-29.48
-32.24
-28.85
-20.66
-10.98
-2.81
1.49
1.31
-1.84
-6.00
-8.86
-9.93
-9.32
-8.45
-8.01
-8.09
-8.61
-9.11
-10.26
-12.31
-15.75
-19.41
-21.74
-21.13
-16.93
-10.73
-4.68
-1.57
-2.28
-6.68
-12.91
-18.64
-22.21
-22.24
-18.85
-12.15
-3.25
7.22
18.26
28.67
37.23
42.05
42.10
36.54
26.48
13.62
1.02
-8.25
-12.31
-10.18
-3.20
6.79
16.89
25.32
30.82
33.28
33.30
31.01
26.79
20.06
11.05
-0.08
-11.72
-21.56
-27.56
-28.06
-23.60
-15.55
-6.70
1.08
6.50
9.63
11.32
11.82
11.32
8.75
3.77
-3.90
-12.85
-20.72
-25.25
-24.52
-18.83
-9.44
0.88
10.15
16.88
20.87
22.77
22.70
20.89
16.51
9.54
0.00
-10.50
-19.62
-25.25
-25.72
-21.48
-13.80
-5.28
2.37
7.91
11.33
13.31
13.87
13.11
10.06
4.56
-3.35
-11.93
-18.66
-21.36
-18.61
-11.45
-1.89
6.82
12.80
15.21
14.93
13.69
12.54
12.13
11.58
10.46
8.34
6.34
6.09
8.77
14.76
22.45
29.94
34.85
36.52
35.47
33.56
32.97
34.75
38.96
44.08
48.79
52.12
54.81
58.76
65.78
76.49
89.05
100.00
104.83
100.50
86.17
64.00
38.30
13.84
-5.56
-18.64
-25.85
-29.53
-31.80
-34.23
-38.30
-44.88
-55.64
-72.42
-96.93
-128.57
-164.17
-197.87
-223.78
-238.22
-240.44
-231.97
-214.43
-188.29
-153.28
-110.56
-64.74
-23.95
2.85
10.23
-1.04
-23.74
-47.91
-65.21
-71.70
-68.31
-58.35
-44.65
-27.12
-3.66
28.00
67.64
111.32
152.43
183.91
200.30
199.26
181.48
149.07
104.96
52.94
-1.71
-51.91
-91.17
-114.50
-122.64
-121.16
-118.64
-119.85
-123.22
-122.60
-111.08
-85.94
-50.93
-14.59
14.68
33.02
42.44
48.23
54.58
61.84
66.39
63.30
49.77
27.43
1.58
-21.24
-36.57
-44.51
-48.63
-54.41
-66.22
-85.38
-109.95
-135.88
-159.53
-178.79
-194.20
-207.05
-218.44
-227.85
-232.43
-228.60
-213.00
-184.41
-144.13
-96.23
-46.69
-2.20
31.43
51.05
56.99
53.52
46.94
43.55
47.12
57.86
73.44
90.55
107.57
124.63
143.47
165.16
189.07
212.76
232.94
247.35
254.97
256.61
253.18
245.91
236.08
224.89
213.86
203.71
194.45
184.82
173.58
160.23
145.84
132.63
122.82
117.78
117.50
121.60
129.70
141.89
157.81
175.58
191.71
201.41
200.89
188.47
165.86
137.02
107.05
80.51
60.07
46.67
39.13
35.47
32.92
29.07
22.19
11.60
-1.96
-17.36
-32.95
-48.25
-63.50
-80.17
-99.97
-124.45
-154.61
-190.04
-229.12
-268.34
-302.90
-327.54
-338.47
-335.24
-321.60
-304.69
-292.18
-289.12
-295.35
-305.84
-312.97
-310.14
-294.54
-267.75
-234.42
-199.47
-166.34
-136.19
-108.70
-83.48
-60.44
-40.55
-24.05
-10.59
2.05
16.71
36.65
64.14
98.97
138.75
178.48
212.44
235.61
245.78
244.03
233.90
219.83
204.92
190.09
174.05
154.89
131.00
101.71
67.18
27.90
-14.40
-56.61
-93.24
-117.66
-123.77
-108.44
-73.34
-24.57
28.45
76.14
110.67
128.19
129.01
117.46
100.27
84.00
73.20
68.50
67.20
64.51
56.46
41.57
21.15
-1.58
-23.29
-41.42
-54.60
-61.81
-62.06
-54.31
-38.01
-14.17
14.84
45.31
73.69
97.16
114.53
125.95
132.39
134.95
134.17
130.08
122.27
110.50
95.07
76.94
57.65
38.84
21.80
7.17
-5.07
-15.43
-24.53
-32.82
-40.39
-47.06
-52.49
-56.39
-58.73
-59.71
-59.68
-59.05
-58.14
-57.10
-55.94
-54.61
-53.03
-51.18
-49.10
-46.87
-44.59
-42.32
-40.10
-37.95
-35.85
-33.81
-31.83
-29.91
-28.04
-26.25
-24.51
-22.84
-21.23
-19.69
-18.22
-16.80
-15.45
-14.17
-12.96
-11.83
-10.74
-9.72
-8.77
-7.90
-7.12
-6.41
-5.78
-5.21
-4.70
-4.25
-3.86
-3.51
-3.21
-2.94
-2.70
-2.48
-2.29
-2.12
-1.96
-1.83
-1.71
-1.60
-1.50
-1.41
-1.32
-1.25
-1.18
-1.11
-1.05
-1.00
-0.95
-0.91
-0.87
-0.83
-0.79
-0.76
-0.72
-0.69
-0.66
-0.64
-0.61
-0.59
-0.58
-0.55
-0.53
-0.51
-0.49
-0.48
-0.47
-0.45
-0.44
-0.42
-0.41
-0.40
-0.39
-0.37
-0.36
-0.36
-0.34
-0.34
-0.33
-0.31
-0.31
-0.30
-0.29
-0.28
-0.27
-0.27
-0.26
-0.25
-0.25
-0.24
-0.24
-0.23
-0.22
-0.22
-0.21
-0.21
-0.20
-0.20
-0.19
-0.19
-0.18
-0.18
-0.17
-0.17
-0.17
-0.17
-0.16
-0.15
-0.14
-0.11
-0.10
-0.07
-0.02
0.02
0.08
0.14
0.21
0.29
0.37
0.47
0.55
0.64
0.74
0.82
0.93
1.03
1.13
1.25
1.37
1.50
1.65
1.80
1.98
2.17
2.40
2.64
2.91
3.22
3.56
3.94
4.36
4.82
5.33
5.90
6.52
7.20
7.95
8.75
9.62
10.55
11.56
12.65
13.81
15.05
16.38
17.81
19.29
20.85
22.50
24.22
26.06
28.00
30.06
32.24
34.52
36.84
39.14
41.33
43.26
44.74
45.55
45.48
44.33
41.94
38.14
32.92
26.38
18.72
10.22
1.25
-7.79
-16.49
-24.06
-30.51
-35.65
-39.41
-41.80
-42.93
-42.98
-42.12
-40.79
-38.96
-36.89
-34.69
-32.49
-30.36
-28.39
-26.53
-24.80
-23.13
-21.44
-19.81
-18.23
-16.75
-15.42
-14.25
-13.23
-12.29
-11.36
-10.33
-9.27
-8.25
-7.37
-6.77
-6.48
-6.43
-6.48
-6.43
-6.16
-5.69
-5.19
-4.90
-5.06
-5.77
-6.90
-8.14
-9.15
-9.65
-9.67
-9.48
-9.55
-10.26
-11.74
-13.82
-16.04
-17.93
-19.16
-19.80
-20.12
-20.58
-21.46
-23.00
-25.40
-28.86
-33.39
-38.37
-42.40
-43.39
-39.58
-30.29
-16.81
-2.17
9.97
16.71
17.05
12.05
4.22
-3.83
-10.33
-14.67
-17.07
-18.00
-17.91
-17.33
-17.09
-18.12
-21.15
-26.31
-33.04
-40.28
-46.87
-52.01
-55.38
-57.61
-60.14
-64.82
-72.83
-83.63
-94.34
-100.49
-97.91
-84.97
-63.57
-38.46
-15.15
3.36
16.97
28.00
39.20
51.79
64.91
76.43
84.44
88.31
88.68
86.63
82.85
77.41
69.89
59.93
47.91
35.00
22.94
13.39
7.38
5.11
5.84
8.10
10.31
11.30
10.67
8.65
5.91
3.18
1.08
-0.32
-1.27
-2.24
-3.66
-5.77
-8.70
-12.57
-17.33
-22.77
-28.91
-35.94
-44.11
-53.53
-63.92
-74.71
-85.29
-94.66
-101.28
-104.24
-103.63
-100.45
-96.22
-92.36
-89.92
-89.67
-91.48
-93.24
-93.32
-91.23
-87.77
-83.98
-79.93
-74.17
-68.99
-64.19
-56.10
-41.91
-21.10
4.38
31.72
59.04
85.96
113.04
141.68
176.75
221.51
276.03
337.17
400.85
464.36
527.08
589.58
625.40
616.72
560.54
470.82
368.22
269.15
182.26
110.32
53.03
8.98
-19.82
-32.53
-31.87
-24.95
-21.14
-28.82
-52.48
-91.46
-140.01
-186.30
-218.82
-231.08
-223.67
-202.48
-175.21
-148.35
-124.96
-106.61
-92.23
-80.52
-71.11
-64.89
-62.58
-64.01
-67.97
-74.22
-78.94
-80.10
-76.13
-67.21
-56.26
-48.32
-49.00
-61.34
-83.86
-110.11
-131.35
-140.28
-134.91
-119.09
-99.65
-82.02
-67.16
-51.96
-32.72
-9.39
13.28
27.24
25.66
7.80
-19.54
-44.74
-56.95
-51.49
-31.61
-5.83
17.08
32.11
39.48
42.67
45.03
47.52
48.37
45.04
36.41
24.23
12.27
4.60
3.56
8.89
18.17
28.07
35.72
39.49
39.33
35.93
30.43
23.96
17.20
10.49
3.92
-2.16
-7.00
-9.17
-7.77
-3.37
1.69
3.93
0.64
-8.53
-20.71
-31.24
-35.62
-32.53
-24.58
-16.50
-12.44
-13.07
-15.84
-16.56
-15.48
-14.39
-17.04
-27.05
-45.49
-70.23
-96.47
-120.03
-138.84
-153.62
-166.20
-178.36
-190.63
-202.14
-211.45
-216.78
-218.20
-216.40
-212.84
-208.31
-202.70
-194.88
-183.37
-167.52
-146.95
-123.35
-99.60
-78.66
-61.73
-47.81
-33.48
-13.54
8.64
31.53
52.36
68.11
76.46
77.25
72.69
66.38
62.33
63.69
73.90
94.98
127.25
168.07
210.86
245.53
261.29
251.00
214.80
162.13
107.44
64.86
42.83
41.76
55.55
75.73
95.72
112.48
126.85
140.86
156.48
175.37
199.61
232.25
276.42
333.36
399.82
467.32
522.82
552.46
546.96
506.14
440.42
368.10
309.29
278.64
280.53
308.00
346.52
380.11
397.19
393.49
371.44
337.03
296.27
253.18
209.54
166.26
124.79
87.26
55.60
30.13
9.01
-11.30
-34.33
-61.74
-92.55
-123.88
-152.52
-176.66
-196.82
-215.42
-235.55
-259.26
-286.73
-316.22
-344.98
-370.63
-392.19
-410.56
-428.37
-449.47
-477.74
-515.59
-562.29
-613.05
-659.34
-691.23
-700.55
-683.96
-644.06
-588.00
-524.41
-460.09
-398.13
-338.11
-278.08
-216.46
-153.17
-89.34
-26.08
36.54
99.79
165.19
233.09
301.69
367.41
426.52
476.81
518.34
552.58
580.62
601.65
612.94
611.42
595.87
568.28
533.41
496.80
462.48
431.78
403.60
375.93
347.22
317.13
286.17
255.09
224.37
193.94
163.28
131.70
98.95
65.31
31.70
-0.67
-30.94
-59.22
-86.68
-114.71
-143.79
-172.71
-198.97
-220.22
-235.70
-246.45
-253.96
-258.42
-257.91
-249.35
-230.81
-203.29
-170.66
-137.66
-107.32
-79.38
-51.06
-19.43
16.09
52.95
86.77
113.75
132.50
144.00
150.57
153.93
154.29
150.55
141.34
126.13
105.93
83.21
61.19
42.66
29.07
20.17
14.25
8.95
2.15
-7.19
-18.73
-30.88
-41.52
-49.03
-52.96
-54.18
-54.33
-55.05
-57.18
-60.65
-64.88
-69.45
-74.76
-82.06
-93.14
-109.66
-132.33
-160.51
-192.29
-225.24
-257.14
-286.78
-314.30
-340.85
-368.25
-398.61
-434.24
-477.57
-529.74
-588.90
-649.43
-702.62
-739.09
-752.07
-739.98
-706.89
-661.29
-612.13
-565.55
-523.53
-484.95
-447.65
-410.29
-372.75
-335.52
-299.87
-265.96
-232.57
-197.82
-160.39
-120.09
-77.93
-35.20
7.27
46.36
80.39
110.13
138.47
168.28
201.06
237.03
276.16
319.26
360.84
396.25
423.38
442.29
452.37
451.10
435.48
404.24
359.98
297.19
214.07
115.87
13.92
-80.14
-159.17
-221.25
-268.16
-302.08
-340.03
-395.50
-471.80
-561.89
-655.90
-747.38
-834.73
-919.47
-928.69
-825.99
-627.10
-392.40
-181.32
-21.49
89.10
167.48
220.17
271.08
320.24
360.37
386.44
400.23
407.54
414.66
426.95
446.62
476.34
504.52
520.27
519.63
506.97
490.58
477.62
472.08
474.99
487.21
500.49
508.22
508.70
504.47
497.80
487.25
468.03
434.93
386.38
320.46
239.22
147.96
52.84
-41.84
-134.21
-222.85
-304.45
-372.67
-422.15
-449.22
-453.39
-437.35
-406.02
-364.52
-316.56
-263.99
-207.62
-148.96
-90.45
-34.92
15.47
60.16
100.26
138.10
176.67
218.82
266.19
317.84
369.27
413.03
440.91
447.74
433.91
405.65
372.01
340.40
313.01
286.77
256.52
219.50
178.24
139.79
112.02
99.17
98.73
101.90
96.91
73.85
28.76
-34.49
-105.53
-171.38
-221.14
-249.65
-258.23
-252.86
-240.56
-226.44
-212.70
-199.43
-186.41
-174.26
-164.34
-157.39
-152.60
-147.58
-139.59
-126.88
-109.73
-90.19
-71.14
-55.29
-44.33
-38.80
-38.05
-40.50
-43.87
-45.75
-44.17
-38.20
-28.20
-15.61
-2.60
8.68
16.61
20.52
20.68
18.02
13.61
8.36
2.75
-2.99
-8.66
-13.74
-17.35
-18.53
-16.70
-12.22
-6.52
-1.77
-0.23
-3.17
-10.51
-20.76
-31.76
-41.46
-48.50
-52.36
-52.96
-50.37
-44.59
-35.63
-23.86
-10.09
4.41
18.21
30.07
39.28
45.72
49.86
52.44
54.26
55.95
57.84
59.93
62.06
63.92
65.24
65.89
65.86
65.19
64.01
62.38
60.32
57.81
54.88
51.57
48.09
44.67
41.55
38.86
36.58
34.53
32.43
30.01
27.09
23.67
19.90
15.96
11.97
7.91
3.57
-1.31
-6.88
-13.07
-19.56
-26.01
-32.10
-37.75
-43.03
-48.08
-52.85
-57.10
-60.45
-62.67
-63.89
-64.71
-65.93
-68.08
-71.04
-73.79
-74.71
-72.15
-65.06
-53.37
-37.92
-20.05
-1.08
18.06
36.91
55.31
73.14
90.10
105.62
118.99
129.53
137.04
141.92
145.20
148.11
151.39
154.64
156.21
153.68
144.88
128.98
107.33
83.13
60.64
43.54
33.59
29.80
28.80
25.84
16.60
-1.02
-25.62
-51.90
-71.76
-76.11
-57.96
-15.34
46.87
117.21
180.24
220.90
229.36
204.39
154.02
92.84
36.76
-2.42
-20.75
-22.40
-16.73
-13.54
-19.08
-34.20
-55.47
-77.96
-97.98
-114.28
-127.45
-138.21
-145.78
-147.88
-142.03
-127.36
-105.78
-81.59
-60.13
-45.45
-38.79
-38.37
-40.49
-41.43
-39.05
-33.33
-25.79
-18.11
-10.97
-3.67
5.42
17.65
33.24
50.84
67.99
82.06
91.21
95.02
94.54
91.73
88.62
86.62
86.09
86.52
86.91
86.33
84.21
80.40
75.08
68.58
61.33
53.91
46.99
41.21
36.78
33.34
29.92
25.37
18.90
10.41
0.60
-9.43
-18.74
-26.84
-33.85
-40.23
-46.48
-52.84
-59.24
-65.24
-70.11
-73.05
-73.34
-70.60
-64.94
-56.91
-47.26
-36.73
-25.84
-14.99
-4.63
4.67
12.24
17.69
21.04
22.91
24.19
25.73
28.00
30.98
34.30
37.50
40.26
42.43
43.96
44.83
45.02
44.63
43.89
43.20
42.94
43.28
44.06
44.86
45.18
44.77
43.78
42.65
41.82
41.39
40.92
39.49
36.04
29.75
20.39
8.48
-4.84
-18.08
-29.86
-39.24
-45.96
-50.42
-53.41
-55.90
-58.69
-62.22
-66.55
-71.39
-76.15
-80.06
-82.24
-81.87
-78.44
-71.92
-62.87
-52.27
-41.30
-31.06
-22.33
-15.47
-10.46
-6.96
-4.42
-2.25
0.02
2.61
5.36
7.88
9.67
10.39
10.03
8.94
7.74
7.03
7.28
8.54
10.50
12.47
13.56
12.91
10.04
5.01
-1.44
-8.11
-13.72
-17.36
-18.81
-18.55
-17.49
-16.55
-16.27
-16.72
-17.55
-18.34
-18.86
-19.18
-19.63
-20.61
-22.42
-25.19
-28.82
-32.93
-36.85
-39.64
-40.17
-37.52
-31.41
-22.44
-12.11
-2.28
5.51
10.54
13.12
14.25
15.05
16.24
17.97
19.97
21.78
23.11
23.86
24.05
23.80
23.24
22.55
21.93
21.53
21.23
20.60
18.93
15.51
10.07
3.02
-4.62
-11.45
-16.26
-18.32
-17.52
-14.34
-9.57
-4.17
0.82
4.47
5.99
5.05
1.86
-2.75
-7.59
-11.53
-13.87
-14.66
-14.64
-14.82
-16.07
-18.68
-22.22
-25.75
-28.19
-28.81
-27.35
-24.02
-19.27
-13.67
-7.80
-2.26
2.26
5.20
6.30
5.80
4.46
3.29
3.22
4.76
7.82
11.79
15.75
18.77
20.19
19.74
17.63
14.44
11.02
8.30
6.98
7.37
9.09
11.25
12.60
12.06
9.09
4.04
-1.99
-7.55
-11.42
-12.99
-12.38
-10.14
-6.98
-3.51
-0.22
2.31
3.38
2.33
-1.19
-6.96
-14.13
-21.51
-28.03
-33.03
-36.40
-38.39
-39.25
-39.06
-37.70
-34.90
-30.45
-24.32
-16.65
-7.77
1.79
11.28
19.77
26.25
30.04
31.01
29.79
27.56
25.66
25.06
26.02
28.06
30.24
31.54
31.27
29.18
25.57
21.10
16.60
12.91
10.59
9.78
10.12
10.88
11.22
10.56
8.69
5.79
2.36
-1.08
-4.08
-6.39
-7.95
-8.97
-9.90
-11.45
-14.27
-18.71
-24.47
-30.59
-35.73
-38.77
-39.33
-38.03
-36.19
-35.14
-35.53
-37.07
-38.72
-39.29
-38.08
-35.14
-31.06
-26.57
-22.12
-17.77
-13.44
-9.14
-5.09
-1.59
1.22
3.60
6.10
9.24
13.22
17.66
21.82
24.80
26.02
25.35
23.13
20.03
16.79
14.16
12.76
12.93
14.65
17.42
20.32
22.30
22.60
21.04
18.05
14.44
11.07
8.65
7.69
8.44
10.78
13.91
16.17
15.37
9.62
-1.64
-16.94
-33.15
-46.77
-55.42
-58.90
-58.92
-57.86
-57.40
-57.72
-57.83
-56.51
-53.21
-48.27
-42.49
-36.47
-30.30
-23.81
-16.99
-10.17
-3.82
1.92
7.38
13.02
18.98
24.79
29.53
32.50
33.61
33.38
32.42
30.95
28.70
25.35
21.17
17.18
14.83
15.15
18.00
22.05
25.40
26.56
25.23
22.42
19.81
18.91
20.11
22.46
23.99
22.57
16.80
6.63
-6.65
-20.78
-33.34
-42.34
-46.58
-45.72
-40.18
-31.01
-19.84
-8.73
0.09
4.62
3.75
-2.31
-11.93
-22.49
-31.27
-36.28
-36.78
-33.12
-26.31
-17.32
-6.98
3.94
14.31
22.58
27.18
27.25
23.29
17.29
12.12
10.53
14.22
23.17
35.67
48.78
59.30
64.69
63.96
57.87
48.62
39.01
31.58
27.89
28.23
31.66
36.15
38.80
36.42
26.50
8.64
-14.63
-37.96
-54.86
-60.48
-53.99
-39.21
-22.99
-12.12
-10.10
-15.91
-25.00
-31.90
-33.03
-28.26
-20.67
-15.11
-16.37
-28.02
-51.70
-86.60
-129.08
-172.65
-208.78
-228.86
-226.81
-201.12
-155.52
-97.88
-37.86
15.64
56.27
80.96
89.71
84.95
70.83
52.37
34.32
20.32
12.02
9.08
10.09
13.38
17.66
21.96
25.45
27.45
28.21
29.39
33.99
44.86
62.48
83.38
100.67
106.90
97.92
75.54
47.12
22.16
8.05
7.11
16.62
31.14
45.37
55.89
61.00
59.90
52.33
39.19
23.49
10.36
5.25
11.24
26.71
45.24
57.92
56.85
38.41
4.50
-38.41
-81.63
-117.06
-139.23
-146.32
-139.91
-124.13
-104.27
-85.42
-71.19
-63.00
-60.01
-59.77
-59.20
-55.69
-47.84
-35.77
-20.85
-5.18
9.05
20.11
27.00
29.60
28.58
25.19
21.08
17.97
17.29
19.79
25.24
32.47
39.58
44.62
46.17
43.89
38.59
32.01
26.09
22.27
20.96
21.36
21.98
21.27
18.31
13.19
6.86
0.61
-4.49
-7.99
-10.15
-11.65
-13.18
-15.12
-17.41
-19.57
-21.05
-21.37
-20.36
-18.07
-14.64
-10.25
-5.03
0.83
6.95
12.83
17.95
21.89
24.55
26.13
27.09
27.92
28.94
30.21
31.48
32.30
32.13
30.63
27.79
24.05
20.26
17.31
15.85
15.90
16.84
17.70
17.66
16.50
14.65
12.91
11.95
11.85
12.06
11.69
10.00
6.86
2.74
-1.59
-5.40
-8.35
-10.44
-11.87
-12.82
-13.44
-13.92
-14.62
-15.92
-18.06
-20.93
-24.04
-26.84
-29.06
-30.95
-33.16
-36.32
-40.52
-45.08
-48.73
-50.17
-48.66
-44.27
-37.79
-30.28
-22.64
-15.37
-8.63
-2.51
2.79
6.99
9.83
11.44
12.39
13.50
15.49
18.58
22.24
25.38
26.87
26.07
23.23
19.44
16.17
14.64
15.28
17.61
20.59
23.10
24.44
24.45
23.44
21.82
19.93
17.88
15.72
13.54
11.53
9.89
8.65
7.65
6.56
5.09
3.15
0.84
-1.66
-4.21
-6.86
-9.74
-13.01
-16.66
-20.49
-24.17
-27.32
-29.60
-30.88
-31.25
-31.04
-30.67
-30.49
-30.59
-30.70
-30.27
-28.78
-25.97
-22.01
-17.43
-12.89
-9.04
-6.27
-4.74
-4.34
-4.73
-5.34
-5.53
-4.77
-2.87
-0.09
2.97
5.56
7.16
7.58
7.01
5.83
4.41
3.00
1.78
0.89
0.53
0.83
1.79
3.15
4.42
5.07
4.71
3.30
1.15
-1.16
-3.03
-4.04
-4.06
-3.20
-1.73
0.07
1.89
3.40
4.38
4.70
4.46
3.93
3.44
3.25
3.41
3.70
3.68
2.94
1.18
-1.56
-4.92
-8.21
-10.63
-11.41
-10.12
-6.79
-1.96
3.47
8.61
12.84
16.00
18.37
20.40
22.47
24.69
26.88
28.67
29.69
29.71
28.75
27.04
24.95
22.90
21.21
19.98
19.08
18.18
16.97
15.25
13.07
10.70
8.46
6.61
5.18
3.96
2.67
1.06
-0.95
-3.24
-5.46
-7.16
-8.03
-8.01
-7.49
-7.10
-7.53
-9.13
-11.73
-14.66
-17.04
-18.20
-18.01
-16.92
-15.80
-15.51
-16.67
-19.35
-23.22
-27.59
-31.70
-34.77
-36.13
-35.29
-32.07
-26.73
-20.01
-13.05
-6.98
-2.50
0.41
2.33
4.03
5.86
7.54
8.49
8.39
7.76
7.98
10.62
16.47
24.77
33.16
38.57
38.54
32.39
21.63
9.44
-0.62
-5.96
-5.93
-1.77
4.02
8.92
11.37
11.17
9.11
6.01
1.94
-3.98
-12.89
-25.05
-38.85
-51.00
-57.68
-56.30
-46.80
-31.75
-15.11
-0.45
10.45
17.81
23.02
27.25
30.58
32.04
30.39
25.12
16.84
7.05
-2.50
-10.58
-16.83
-21.73
-26.31
-31.67
-38.47
-46.56
-54.85
-61.41
-64.00
-60.84
-51.32
-36.50
-19.00
-2.28
10.31
16.59
16.16
10.52
2.54
-4.33
-7.08
-4.06
4.54
16.67
29.09
38.46
42.46
40.57
34.06
25.30
16.84
10.66
7.89
8.90
13.57
21.36
31.26
41.80
51.32
58.57
63.16
65.48
66.20
65.51
62.97
57.94
50.45
41.70
33.72
28.36
26.20
26.21
26.47
25.36
22.67
19.72
18.63
21.12
27.54
36.66
46.15
53.46
56.70
55.30
50.17
43.38
37.37
33.86
33.16
33.89
33.73
30.46
23.09
12.24
-0.17
-11.75
-20.44
-24.94
-24.90
-20.82
-14.15
-7.29
-3.43
-5.99
-17.53
-38.66
-67.35
-99.22
-128.66
-150.50
-161.44
-160.77
-150.15
-132.65
-111.74
-90.46
-71.13
-55.34
-43.90
-36.70
-32.55
-29.30
-24.41
-15.91
-3.22
12.47
28.70
42.78
52.97
59.15
62.65
65.12
67.27
67.90
64.09
52.54
31.45
2.06
-31.28
-62.50
-86.15
-99.32
-102.14
-96.71
-85.42
-69.62
-49.56
-25.51
0.95
26.40
46.33
56.79
56.14
45.63
28.92
10.66
-4.80
-14.14
-15.19
-6.91
10.31
34.22
60.56
83.78
98.78
102.87
96.93
84.95
72.04
61.93
55.51
51.22
46.80
41.39
36.48
35.13
40.07
51.95
68.74
86.72
102.31
113.72
121.46
127.66
134.60
143.43
153.64
163.53
171.22
175.65
177.02
176.43
174.90
172.41
167.37
156.88
137.82
108.26
68.56
21.55
-28.36
-76.69
-120.41
-158.79
-193.13
-225.94
-259.88
-297.31
-339.81
-387.73
-439.34
-490.20
-533.49
-561.56
-568.62
-553.12
-518.57
-472.31
-422.72
-376.35
-336.53
-303.69
-276.84
-254.99
-237.65
-224.15
-212.95
-201.33
-186.12
-164.94
-137.22
-104.21
-68.48
-32.66
1.69
34.49
66.96
101.00
138.50
180.62
227.21
276.42
324.67
367.16
399.05
416.93
420.01
410.25
391.62
368.54
344.47
321.30
299.65
279.64
261.57
245.99
233.40
223.72
216.08
209.20
201.87
193.52
184.41
175.47
167.71
161.60
156.69
151.54
144.13
132.51
115.43
92.83
65.87
36.59
7.24
-20.37
-45.51
-68.54
-90.61
-112.82
-135.08
-155.33
-169.59
-173.15
-162.50
-137.40
-101.82
-63.14
-30.40
-11.58
-11.51
-30.65
-64.71
-105.21
-141.04
-160.86
-156.65
-126.89
-77.77
-22.01
25.25
51.64
51.60
27.99
-9.23
-46.39
-70.35
-72.44
-50.95
-11.42
35.32
76.90
103.54
110.93
100.69
78.34
50.51
22.54
-2.10
-21.05
-32.48
-35.19
-29.53
-18.03
-5.00
5.13
9.57
8.46
4.52
1.56
2.88
9.83
21.33
34.39
45.35
51.09
50.17
43.15
32.13
19.94
9.01
0.71
-4.73
-7.75
-8.84
-7.90
-4.27
2.95
14.34
29.61
47.55
66.24
83.72
98.46
109.83
118.06
123.94
128.52
132.66
137.03
142.05
147.92
154.51
161.16
166.62
169.16
167.07
159.18
145.19
125.78
102.29
76.29
49.13
21.67
-5.69
-32.92
-60.22
-87.88
-116.12
-144.96
-174.05
-202.68
-229.74
-254.00
-274.35
-290.07
-301.03
-307.65
-310.76
-311.16
-309.35
-305.32
-298.74
-289.20
-276.52
-260.81
-242.30
-221.12
-197.33
-171.09
-143.08
-114.71
-88.05
-65.30
-48.06
-36.70
-30.16
-26.35
-22.96
-18.20
-11.12
-1.29
11.56
27.62
46.58
67.06
86.50
101.95
111.30
114.43
113.23
110.60
108.82
108.34
107.86
105.29
99.19
89.54
77.55
64.79
52.43
40.91
30.31
20.74
12.56
6.31
2.39
0.84
1.18
2.54
3.84
4.01
2.32
-1.43
-6.86
-13.16
-19.38
-24.81
-29.16
-32.51
-35.22
-37.57
-39.67
-41.43
-42.66
-43.34
-43.69
-44.09
-44.85
-45.97
-46.97
-47.07
-45.43
-41.52
-35.45
-27.95
-20.16
-13.23
-8.00
-4.84
-3.69
-4.21
-5.95
-8.45
-11.20
-13.61
-15.05
-14.94
-12.97
-9.29
-4.52
0.44
4.70
7.71
9.36
9.91
9.73
9.01
7.68
5.48
2.17
-2.24
-7.46
-13.11
-18.82
-24.50
-30.19
-36.10
-42.42
-49.17
-56.15
-62.92
-68.81
-72.88
-74.11
-71.50
-64.47
-53.12
-38.29
-21.49
-4.51
10.90
23.43
32.28
37.36
39.17
38.85
37.93
38.12
40.86
46.95
56.45
68.62
82.27
96.02
108.65
119.14
126.74
131.02
131.87
129.46
124.10
116.16
105.99
94.07
81.16
68.39
57.11
48.51
43.10
40.43
39.30
38.20
36.08
32.80
29.10
26.21
25.16
26.26
29.03
32.45
35.37
36.92
36.58
34.27
30.25
25.17
20.01
15.99
14.26
15.45
19.32
24.71
29.84
32.96
33.10
30.36
25.92
21.44
18.33
17.20
17.58
18.19
17.40
13.71
6.26
-5.06
-19.64
-36.25
-53.31
-69.15
-82.35
-91.92
-97.33
-98.43
-95.25
-88.00
-77.10
-63.37
-48.12
-32.90
-19.22
-8.06
0.31
6.15
9.83
11.26
9.85
4.81
-4.09
-15.90
-28.29
-38.10
-42.30
-39.05
-28.30
-11.81
7.43
26.00
40.82
49.73
51.93
48.22
41.02
33.71
29.63
30.92
37.69
47.86
58.00
64.59
65.30
59.75
49.45
37.02
25.12
15.59
9.01
4.85
2.01
-0.63
-3.74
-7.43
-11.42
-15.30
-18.79
-21.64
-23.56
-24.05
-22.56
-18.76
-12.80
-5.45
2.06
8.39
12.62
14.48
14.39
13.20
11.79
10.80
10.41
10.47
10.61
10.59
10.29
9.79
9.23
8.70
8.25
7.83
7.40
6.90
6.31
5.57
4.63
3.42
1.89
0.03
-2.14
-4.63
-7.56
-11.26
-16.25
-23.07
-31.98
-42.57
-53.71
-63.74
-70.95
-74.17
-73.06
-68.14
-60.37
-50.70
-39.67
-27.36
-13.56
1.96
19.33
38.56
59.64
82.43
106.46
130.57
152.93
171.26
183.54
188.77
187.27
180.56
170.58
158.83
145.85
131.30
114.52
95.19
73.67
50.88
27.88
5.48
-15.75
-35.45
-53.15
-68.23
-80.13
-88.52
-93.55
-95.74
-95.82
-94.43
-91.99
-88.73
-84.76
-80.26
-75.51
-70.85
-66.50
-62.52
-58.77
-55.00
-51.00
-46.67
-42.08
-37.41
-32.92
-28.86
-25.43
-22.80
-21.02
-20.04
-19.72
-19.84
-20.16
-20.50
-20.78
-21.06
-21.57
-22.75
-25.15
-29.12
-34.43
-40.23
-45.23
-48.39
-49.49
-49.45
-49.76
-51.74
-55.65
-60.61
-65.09
-67.78
-68.32
-67.21
-65.29
-63.01
-60.09
-55.80
-49.56
-41.45
-32.28
-23.17
-14.96
-7.97
-1.83
4.06
10.19
16.60
22.86
28.21
31.85
33.28
32.36
29.52
25.63
21.89
19.55
19.65
22.68
28.46
36.21
44.74
52.81
59.35
63.65
65.30
64.20
60.42
54.23
46.21
37.26
28.56
21.40
16.75
14.98
15.66
17.72
19.81
20.79
20.12
17.88
14.62
10.99
7.51
4.45
1.94
0.06
-1.07
-1.37
-0.90
0.14
1.37
2.45
3.11
3.30
3.09
2.68
2.25
1.90
1.70
1.65
1.71
1.85
2.06
2.28
2.42
2.42
2.15
1.60
0.84
0.01
-0.71
-1.19
-1.41
-1.51
-1.69
-2.14
-2.87
-3.76
-4.55
-5.01
-5.05
-4.77
-4.41
-4.20
-4.32
-4.78
-5.49
-6.33
-7.22
-8.19
-9.34
-10.79
-12.58
-14.69
-16.97
-19.28
-21.46
-23.33
-24.74
-25.48
-25.36
-24.22
-22.05
-18.98
-15.30
-11.36
-7.48
-3.84
-0.55
2.39
5.01
7.31
9.30
10.99
12.39
13.49
14.24
14.58
14.49
13.96
13.10
12.08
11.14
10.46
10.14
10.18
10.52
11.07
11.71
12.38
12.96
13.34
13.41
13.13
12.51
11.68
10.78
9.92
9.10
8.16
7.01
5.55
3.89
2.26
0.92
0.00
-0.55
-0.98
-1.58
-2.56
-3.97
-5.65
-7.42
-9.08
-10.52
-11.68
-12.50
-12.91
-12.84
-12.30
-11.43
-10.42
-9.44
-8.48
-7.31
-5.55
-2.86
0.79
5.05
9.24
12.62
14.67
15.29
14.79
13.72
12.64
11.93
11.68
11.80
12.12
12.48
12.82
13.15
13.52
13.99
14.54
15.09
15.51
15.65
15.41
14.81
13.90
12.79
11.54
10.18
8.74
7.28
5.99
5.08
4.74
4.91
5.31
5.51
5.08
3.85
1.98
-0.15
-2.12
-3.67
-4.83
-5.87
-7.11
-8.73
-10.74
-12.94
-15.08
-16.89
-18.18
-18.79
-18.59
-17.51
-15.55
-12.82
-9.53
-5.90
-2.14
1.61
5.26
8.70
11.79
14.41
16.43
17.88
18.89
19.65
20.33
21.00
21.65
22.15
22.33
22.11
21.54
20.86
20.44
20.69
21.86
23.92
26.43
28.67
29.84
29.39
27.17
23.55
19.21
14.79
10.65
6.62
2.13
-3.55
-10.96
-20.12
-30.32
-40.31
-48.63
-54.17
-56.59
-56.48
-55.05
-53.65
-53.11
-53.49
-54.19
-54.33
-53.32
-51.06
-47.89
-44.27
-40.43
-36.30
-31.67
-26.50
-21.05
-15.81
-11.25
-7.66
-5.05
-3.24
-1.91
-0.54
1.60
5.45
11.95
21.58
33.93
47.60
60.58
70.89
77.35
79.83
79.00
75.80
70.81
64.04
55.18
44.01
30.89
16.88
3.47
-7.87
-16.10
-20.91
-22.59
-21.75
-19.02
-14.81
-9.39
-3.09
3.47
9.36
13.65
15.87
16.37
16.14
16.28
17.32
18.88
19.94
19.58
17.76
15.49
14.45
15.97
20.40
26.99
34.65
42.80
51.93
63.33
78.17
96.40
116.23
134.44
147.43
152.52
149.02
138.31
123.25
106.88
91.41
77.59
64.87
52.03
37.81
21.50
3.11
-16.75
-37.17
-57.18
-75.96
-92.96
-107.85
-120.33
-129.94
-135.91
-137.35
-133.64
-124.93
-112.46
-98.27
-84.52
-72.77
-63.47
-56.17
-50.08
-44.81
-40.72
-38.70
-39.59
-43.59
-49.99
-57.46
-64.52
-70.14
-73.82
-75.54
-75.38
-73.39
-69.68
-64.68
-59.29
-54.65
-51.57
-49.90
-48.19
-44.14
-35.65
-21.87
-4.00
15.01
31.46
42.44
46.95
46.05
42.19
37.96
35.03
33.73
33.33
32.79
31.33
28.76
25.31
21.35
17.08
12.51
7.54
2.11
-3.71
-9.81
-16.06
-22.48
-29.10
-35.85
-42.50
-48.52
-53.06
-55.08
-53.78
-48.84
-40.81
-31.13
-21.72
-14.43
-10.38
-9.63
-11.32
-14.18
-17.07
-19.44
-21.50
-23.96
-27.63
-32.87
-39.24
-45.24
-48.61
-47.03
-39.06
-24.93
-6.60
12.84
30.43
44.36
54.32
61.03
65.30
67.39
66.97
63.58
57.09
47.80
36.14
22.42
6.95
-9.63
-25.90
-39.71
-48.74
-51.21
-46.36
-34.43
-16.31
6.62
32.44
58.49
81.44
98.02
106.10
105.46
97.82
86.02
72.90
60.27
48.68
37.66
26.31
13.76
-0.50
-16.33
-32.82
-48.22
-60.35
-67.19
-67.71
-62.24
-52.35
-40.31
-28.37
-18.44
-11.79
-9.04
-9.79
-12.70
-15.73
-16.92
-15.30
-11.35
-6.82
-3.74
-3.32
-5.33
-8.34
-10.59
-10.95
-9.37
-6.55
-3.32
0.05
3.74
8.08
13.00
18.02
22.51
26.23
29.62
33.56
38.85
45.43
52.18
57.12
58.17
53.90
44.06
29.78
13.44
-1.74
-12.36
-15.86
-11.50
-1.04
11.56
21.23
23.68
16.96
2.26
-16.59
-34.60
-47.35
-52.33
-49.36
-40.28
-27.92
-15.12
-4.00
4.29
9.50
11.90
12.04
10.58
8.26
5.94
4.56
4.81
6.95
10.57
14.68
17.99
19.37
18.24
14.75
9.68
3.99
-1.40
-5.92
-9.26
-11.30
-11.97
-11.26
-9.27
-6.30
-2.77
0.83
4.06
6.55
8.02
8.24
7.09
4.62
1.18
-2.78
-6.82
-10.81
-14.87
-19.17
-23.76
-28.38
-32.71
-36.54
-40.06
-43.77
-48.22
-53.64
-59.80
-66.20
-72.31
-77.94
-83.25
-88.58
-94.12
-99.67
-104.64
-108.28
-110.07
-109.91
-108.16
-105.36
-101.89
-97.63
-91.76
-82.95
-69.72
-51.04
-26.80
1.90
32.97
63.94
92.75
118.46
141.35
162.66
183.77
205.52
227.80
249.60
269.34
285.08
294.76
296.21
287.43
267.18
235.72
195.23
149.43
102.52
58.01
17.97
-16.81
-45.92
-68.72
-84.19
-91.67
-91.79
-87.12
-81.86
-80.62
-87.03
-102.41
-125.33
-152.02
-177.20
-195.58
-203.21
-198.56
-182.91
-159.85
-133.71
-108.02
-84.50
-63.01
-42.73
-23.32
-5.72
8.17
16.49
18.62
15.74
10.34
5.21
2.23
1.86
3.35
5.58
7.86
10.36
13.99
19.68
27.83
37.90
48.55
58.16
65.37
69.48
70.39
68.39
63.99
57.71
50.11
41.96
34.11
27.32
22.03
18.21
15.40
12.90
10.09
6.57
2.29
-2.49
-7.32
-11.56
-14.60
-16.07
-15.84
-14.26
-11.87
-9.26
-6.62
-3.64
0.37
6.16
14.12
24.03
35.03
45.88
55.30
62.32
66.55
68.19
67.90
66.54
64.89
63.44
62.27
61.13
59.53
56.95
52.97
47.40
40.29
32.04
23.20
14.48
6.51
-0.37
-6.18
-11.37
-16.64
-22.72
-30.02
-38.37
-46.98
-54.59
-59.92
-62.18
-61.40
-58.46
-54.71
-51.38
-49.11
-47.85
-47.12
-46.50
-45.90
-45.72
-46.46
-48.37
-51.21
-54.30
-56.78
-58.04
-57.97
-57.02
-56.08
-56.04
-57.50
-60.41
-63.98
-66.96
-68.01
-66.30
-61.84
-55.48
-48.52
-42.31
-37.94
-36.21
-37.64
-42.47
-50.33
-59.95
-69.19
-75.45
-76.52
-71.34
-60.10
-43.90
-23.95
-1.03
24.47
51.98
80.20
106.96
129.86
147.28
159.03
166.21
170.38
172.41
171.91
167.46
157.66
142.16
122.18
100.17
79.06
61.28
48.29
40.54
37.58
38.27
40.78
42.74
41.68
35.83
24.79
9.94
-6.03
-20.03
-29.74
-34.43
-35.07
-33.82
-33.14
-34.94
-40.17
-48.79
-60.01
-72.57
-84.94
-95.49
-102.76
-105.79
-104.45
-99.46
-92.08
-83.56
-74.63
-65.36
-55.34
-44.22
-31.95
-18.94
-5.80
6.90
18.73
29.46
38.96
47.24
54.42
60.69
66.25
71.14
75.20
78.18
79.76
79.72
77.90
74.17
68.45
60.80
51.58
41.55
31.78
23.26
16.62
11.79
8.05
4.44
0.22
-4.64
-9.36
-12.71
-13.56
-11.41
-6.61
-0.11
6.89
13.15
17.22
17.35
11.65
-1.09
-20.41
-43.68
-66.68
-85.10
-96.33
-100.39
-99.56
-96.87
-94.38
-92.10
-88.28
-80.61
-67.70
-49.87
-28.97
-7.65
11.77
27.89
40.34
49.49
55.98
60.35
63.00
64.30
64.65
64.23
62.48
57.68
47.24
28.82
1.93
-30.96
-64.81
-93.91
-114.36
-125.49
-129.73
-130.29
-128.75
-123.60
-110.94
-86.56
-48.12
3.65
65.13
130.86
194.69
250.57
293.24
319.07
326.91
318.54
298.16
271.09
242.18
214.75
190.38
169.35
151.26
135.32
120.50
105.61
89.68
72.24
53.58
34.57
16.27
-0.29
-14.31
-25.34
-33.36
-38.88
-42.97
-46.94
-51.74
-57.43
-63.15
-67.58
-69.64
-69.08
-66.54
-63.11
-59.75
-56.85
-54.26
-51.58
-48.64
-45.70
-43.45
-42.73
-44.18
-47.86
-53.08
-58.52
-62.66
-64.33
-63.17
-59.66
-54.79
-49.54
-44.47
-39.80
-35.62
-32.28
-30.41
-30.59
-32.81
-36.19
-39.11
-39.78
-37.05
-30.89
-22.45
-13.55
-5.88
-0.35
3.07
5.13
6.67
8.11
9.27
9.56
8.48
5.96
2.43
-1.46
-5.05
-7.89
-9.49
-9.21
-6.29
-0.23
8.69
19.11
28.83
35.56
37.78
35.34
29.42
21.89
14.57
8.66
4.63
2.42
1.86
2.72
4.77
7.64
10.72
13.21
14.28
13.28
9.91
4.21
-3.57
-13.18
-24.43
-37.10
-50.74
-64.39
-76.60
-85.78
-90.69
-90.89
-86.89
-79.86
-71.14
-61.84
-52.71
-44.21
-36.71
-30.48
-25.57
-21.64
-17.96
-13.61
-7.92
-0.73
7.58
16.46
25.45
34.51
43.96
54.21
65.30
76.72
87.36
95.79
100.70
101.19
96.99
88.31
75.61
59.23
39.21
15.26
-12.97
-45.47
-81.39
-118.98
-155.87
-189.52
-217.68
-238.72
-251.62
-255.99
-252.07
-240.91
-224.47
-205.39
-186.44
-169.74
-156.01
-144.62
-134.06
-122.86
-110.25
-96.29
-81.50
-66.30
-50.82
-34.94
-18.87
-3.44
9.89
19.60
24.90
26.29
25.57
25.23
27.47
33.41
42.76
54.13
65.73
75.94
83.74
88.61
90.38
89.07
84.99
78.83
71.64
64.62
58.71
54.18
50.64
47.28
43.34
38.55
33.22
28.07
23.96
21.56
21.06
22.16
24.05
25.71
26.21
25.11
22.53
18.99
14.96
10.66
6.07
1.23
-3.43
-7.16
-9.25
-9.52
-8.57
-7.61
-7.87
-10.11
-14.55
-20.88
-28.54
-36.73
-44.39
-50.41
-54.16
-55.93
-57.31
-60.66
-68.06
-80.26
-96.43
-114.66
-132.97
-149.92
-164.54
-175.73
-181.75
-180.48
-170.26
-150.82
-123.65
-91.49
-57.44
-24.22
6.04
31.67
51.38
64.62
71.95
75.20
76.76
78.65
81.51
84.50
86.03
84.86
80.89
75.17
69.20
64.17
60.46
57.86
56.08
55.33
56.33
59.87
66.22
74.69
83.59
90.73
94.18
93.06
87.93
80.75
74.18
70.66
71.57
76.78
84.75
93.11
99.61
102.93
103.18
101.90
101.34
103.49
109.14
117.44
126.26
133.23
136.86
137.21
135.78
134.44
134.15
134.13
132.19
125.79
113.37
95.08
72.50
48.05
24.27
3.56
-11.94
-20.82
-23.39
-22.43
-23.07
-31.04
-50.12
-79.99
-115.87
-150.56
-177.50
-193.36
-198.76
-196.78
-190.72
-182.39
-172.00
-159.16
-144.19
-128.63
-114.71
-104.24
-97.74
-94.35
-92.28
-89.87
-86.10
-80.88
-74.71
-68.20
-61.73
-55.41
-49.34
-43.70
-38.68
-34.15
-29.48
-23.66
-15.90
-6.20
4.43
14.40
22.36
27.84
31.42
34.05
36.29
37.83
37.68
34.87
29.09
20.94
11.54
1.88
-7.64
-17.20
-26.88
-36.08
-43.22
-46.25
-43.55
-34.88
-21.72
-6.88
6.53
16.25
21.65
23.79
24.84
27.12
32.35
41.26
53.56
68.17
83.56
97.94
109.71
117.81
121.82
122.00
118.88
112.89
104.27
93.26
80.39
66.74
53.70
42.49
33.67
26.92
21.33
15.98
10.45
4.98
0.20
-3.34
-5.48
-6.41
-6.50
-6.01
-5.02
-3.46
-1.33
1.18
3.45
4.44
2.95
-1.94
-10.33
-21.14
-32.37
-41.85
-48.05
-50.80
-51.17
-50.76
-50.86
-51.75
-52.85
-53.22
-52.29
-50.31
-48.22
-47.36
-49.03
-54.15
-63.00
-74.96
-88.36
-100.49
-108.31
-109.31
-102.46
-88.70
-70.62
-51.60
-34.69
-21.94
-14.19
-11.34
-12.65
-16.88
-22.24
-26.59
-27.88
-24.89
-17.85
-8.41
0.97
8.24
12.55
14.67
16.47
20.00
26.55
36.25
48.22
61.08
73.54
84.56
93.28
99.00
101.09
99.39
94.38
87.23
79.37
72.04
65.75
60.32
55.19
49.88
44.23
38.26
31.95
24.94
16.73
7.07
-3.69
-14.50
-24.23
-32.16
-38.48
-43.97
-49.36
-54.49
-58.13
-58.58
-54.70
-46.81
-37.05
-28.59
-24.30
-25.46
-31.15
-38.71
-44.95
-47.36
-44.90
-37.90
-27.46
-14.69
-0.42
14.66
29.55
42.72
52.39
57.26
57.05
52.61
45.49
37.32
29.44
23.05
19.75
21.70
31.12
49.13
74.44
102.64
126.99
140.45
138.26
119.92
89.62
54.65
22.76
-0.73
-14.50
-20.96
-24.40
-28.54
-34.79
-42.11
-48.10
-50.73
-49.49
-45.42
-40.25
-35.15
-29.98
-23.48
-14.30
-2.17
11.58
24.34
33.36
37.16
36.12
32.25
27.97
24.76
22.47
19.57
14.21
5.42
-6.25
-19.02
-30.69
-39.60
-45.05
-47.26
-46.96
-45.01
-42.13
-38.76
-34.95
-30.41
-24.66
-17.27
-8.27
1.66
11.36
19.56
25.44
28.84
30.07
29.51
27.32
23.46
18.11
11.87
5.74
0.71
-2.73
-4.76
-5.93
-6.71
-7.07
-6.55
-4.74
-1.72
1.71
4.29
4.89
2.97
-1.27
-7.10
-13.69
-20.39
-26.78
-32.57
-37.43
-40.95
-42.64
-42.06
-38.93
-33.28
-25.42
-15.90
-5.31
5.92
17.64
29.96
42.92
56.14
68.63
78.92
85.58
87.79
85.74
80.60
74.04
67.58
62.03
57.43
53.33
49.29
45.35
41.94
39.59
38.40
37.71
36.29
32.90
26.94
18.80
9.68
1.04
-6.05
-11.27
-14.86
-17.28
-18.69
-18.98
-17.89
-15.36
-11.79
-7.87
-4.33
-1.61
0.31
1.73
3.04
4.38
5.61
6.38
6.39
5.57
4.20
2.76
1.74
1.33
1.39
1.47
1.12
0.13
-1.33
-2.87
-4.07
-4.81
-5.29
-5.94
-7.08
-8.77
-10.71
-12.43
-13.52
-13.84
-13.55
-13.11
-13.02
-13.68
-15.29
-17.79
-20.91
-24.19
-27.07
-28.98
-29.45
-28.15
-25.00
-20.22
-14.36
-8.27
-2.95
0.76
2.49
2.51
1.64
0.96
1.41
3.41
6.68
10.38
13.50
15.22
15.26
13.88
11.76
9.73
8.47
8.34
9.28
10.91
12.51
13.30
12.71
10.70
7.88
5.41
4.54
6.02
9.67
14.32
18.14
19.38
16.91
10.62
1.36
-9.34
-19.68
-27.97
-32.91
-33.83
-30.80
-24.63
-16.71
-8.70
-2.03
2.40
4.46
4.66
3.89
3.13
3.08
4.07
6.03
8.60
11.17
13.09
13.81
13.05
10.89
7.79
4.40
1.33
-1.03
-2.62
-3.61
-4.25
-4.70
-5.04
-5.24
-5.29
-5.23
-5.09
-4.97
-4.94
-5.11
-5.62
-6.61
-8.19
-10.39
-13.13
-16.25
-19.47
-22.49
-25.00
-26.70
-27.35
-26.76
-24.96
-22.17
-18.77
-15.23
-11.93
-9.05
-6.56
-4.28
-2.06
0.16
2.21
3.83
4.77
4.91
4.33
3.28
2.06
0.96
0.12
-0.40
-0.63
-0.58
-0.23
0.41
1.29
2.27
3.12
3.60
3.56
2.96
1.87
0.44
-1.19
-2.93
-4.69
-6.44
-8.13
-9.76
-11.38
-13.07
-14.82
-16.54
-17.95
-18.69
-18.45
-17.07
-14.63
-11.43
-7.90
-4.46
-1.45
0.91
2.55
3.48
3.75
3.46
2.79
1.95
1.25
0.95
1.25
2.15
3.41
4.61
5.29
5.18
4.25
2.73
1.03
-0.48
-1.60
-2.32
-2.80
-3.19
-3.62
-4.04
-4.35
-4.41
-4.16
-3.66
-3.06
-2.57
-2.44
-2.85
-3.91
-5.49
-7.27
-8.78
-9.48
-8.98
-7.17
-4.22
-0.56
3.35
7.12
10.56
13.62
16.33
18.70
20.70
22.24
23.32
24.01
24.46
24.92
25.58
26.52
27.69
28.93
30.03
30.89
31.47
31.79
31.89
31.65
30.94
29.55
27.39
24.53
21.17
17.61
14.05
10.51
6.78
2.43
-3.02
-10.06
-18.93
-29.53
-41.34
-53.35
-64.30
-72.83
-77.84
-78.72
-75.44
-68.48
-58.74
-47.29
-35.25
-23.74
-13.74
-6.06
-1.13
1.01
0.79
-1.11
-3.95
-7.10
-10.16
-12.86
-15.06
-16.63
-17.52
-17.76
-17.52
-17.02
-16.47
-15.98
-15.52
-15.05
-14.57
-14.17
-14.01
-14.18
-14.65
-15.21
-15.62
-15.63
-15.16
-14.30
-13.27
-12.31
-11.54
-10.94
-10.31
-9.40
-7.99
-5.99
-3.48
-0.58
2.52
5.65
8.65
11.37
13.66
15.42
16.61
17.26
17.48
17.37
17.02
16.48
15.84
15.18
14.60
14.18
13.96
13.91
13.93
13.91
13.76
13.42
12.86
12.08
11.15
10.08
8.89
7.57
6.14
4.59
2.96
1.30
-0.39
-2.10
-3.92
-5.87
-7.92
-9.87
-11.43
-12.24
-12.00
-10.62
-8.19
-5.06
-1.63
1.66
4.53
6.84
8.65
10.10
11.26
12.19
12.82
13.09
13.04
12.82
12.63
12.65
12.88
13.18
13.35
13.22
12.78
12.16
11.53
10.99
10.52
10.02
9.38
8.56
7.59
6.51
5.34
4.03
2.51
0.71
-1.36
-3.69
-6.21
-8.88
-11.63
-14.31
-16.70
-18.50
-19.41
-19.22
-17.87
-15.44
-12.19
-8.47
-4.62
-0.96
2.31
5.07
7.33
9.16
10.65
11.82
12.72
13.31
13.59
13.54
13.18
12.60
11.90
11.21
10.61
10.15
9.78
9.43
8.97
8.30
7.34
6.10
4.60
2.88
1.03
-0.88
-2.77
-4.53
-6.13
-7.54
-8.85
-10.16
-11.59
-13.25
-15.15
-17.23
-19.29
-21.08
-22.32
-22.70
-22.00
-20.11
-17.00
-12.77
-7.57
-1.65
4.67
10.92
16.59
21.19
24.39
26.17
26.69
26.32
25.48
24.60
23.97
23.83
24.27
25.11
25.96
26.26
25.48
23.38
20.16
16.40
12.83
10.14
8.77
8.86
10.33
12.86
15.83
18.35
19.34
17.84
13.35
6.10
-3.05
-12.85
-22.17
-30.29
-37.07
-42.74
-47.65
-52.07
-56.09
-59.62
-62.50
-64.53
-65.43
-64.93
-62.82
-59.04
-53.81
-47.61
-41.06
-34.77
-29.17
-24.38
-20.31
-16.67
-13.19
-9.62
-5.87
-1.91
2.22
6.48
10.85
15.26
19.63
23.76
27.41
30.33
32.36
33.41
33.49
32.65
30.92
28.34
25.00
21.15
17.16
13.49
10.53
8.46
7.19
6.42
5.77
4.98
3.94
2.75
1.62
0.79
0.53
1.05
2.45
4.71
7.62
10.77
13.71
15.97
17.30
17.78
17.88
18.38
20.15
23.82
29.50
36.65
44.24
51.10
56.34
59.61
61.07
61.19
60.42
59.00
57.01
54.48
51.52
48.33
45.13
41.96
38.68
35.09
31.03
26.54
21.90
17.47
13.52
10.14
7.16
4.30
1.31
-2.00
-5.65
-9.65
-13.95
-18.37
-22.57
-26.01
-28.11
-28.49
-27.20
-24.80
-22.21
-20.42
-20.21
-21.99
-25.77
-31.18
-37.52
-43.93
-49.43
-53.13
-54.45
-53.12
-49.32
-43.59
-36.68
-29.36
-22.32
-15.99
-10.53
-5.87
-1.80
1.85
5.22
8.30
11.11
13.69
16.20
18.77
21.49
24.31
27.04
29.43
31.22
32.16
32.09
30.90
28.56
25.18
20.97
16.19
11.16
6.15
1.44
-2.68
-5.97
-8.24
-9.44
-9.75
-9.50
-9.10
-8.91
-9.12
-9.76
-10.79
-12.11
-13.65
-15.18
-16.29
-16.39
-14.91
-11.58
-6.56
-0.41
6.13
12.45
18.14
22.97
26.70
28.98
29.50
28.25
25.57
22.11
18.40
14.43
9.68
3.43
-4.60
-13.87
-22.98
-30.39
-35.09
-37.14
-37.42
-37.09
-36.86
-36.73
-36.45
-36.02
-36.14
-38.06
-42.89
-50.82
-60.82
-70.84
-78.68
-82.80
-82.69
-78.79
-71.90
-62.78
-51.90
-39.72
-26.88
-14.33
-3.02
6.47
14.26
21.13
28.06
35.70
43.98
52.02
58.47
62.05
61.94
58.14
51.44
43.23
35.19
28.80
24.93
23.69
24.31
25.54
26.01
24.79
21.64
17.05
12.05
7.78
5.25
5.02
7.02
10.67
14.93
18.73
21.17
21.81
20.68
18.20
15.02
11.81
9.15
7.39
6.61
6.69
7.54
9.27
12.31
17.17
23.92
31.76
38.82
42.75
41.57
34.72
23.32
9.78
-3.34
-14.42
-23.22
-30.63
-37.73
-44.97
-51.83
-57.17
-60.02
-60.24
-58.74
-57.02
-56.41
-57.40
-59.44
-61.30
-61.66
-59.63
-54.82
-47.06
-36.23
-22.20
-5.22
13.65
32.58
49.41
62.43
70.91
75.20
76.14
74.52
70.75
64.98
57.57
49.38
41.62
35.37
31.02
28.10
25.62
22.62
18.75
14.39
10.39
7.62
6.44
6.63
7.52
8.32
8.54
8.14
7.47
6.95
6.82
6.97
7.09
6.95
6.63
6.61
7.44
9.45
12.47
15.87
18.82
20.64
20.98
19.82
17.23
13.30
8.19
2.36
-3.32
-7.82
-10.39
-11.07
-10.75
-10.85
-12.56
-16.20
-21.10
-25.91
-29.32
-30.57
-29.77
-27.61
-25.04
-22.91
-21.77
-21.81
-22.89
-24.53
-26.09
-26.95
-26.77
-25.56
-23.51
-20.69
-16.96
-12.06
-6.07
0.35
6.04
9.79
10.94
9.71
6.99
3.86
1.13
-0.89
-2.14
-2.44
-1.32
1.88
7.51
15.17
23.54
30.68
34.64
34.13
28.91
19.86
8.74
-2.44
-11.85
-18.33
-21.44
-21.45
-19.11
-15.49
-11.81
-9.30
-8.93
-11.12
-15.55
-21.11
-26.29
-29.67
-30.45
-28.79
-25.63
-22.23
-19.59
-18.08
-17.41
-16.94
-15.99
-14.10
-11.06
-6.84
-1.73
3.69
8.39
11.27
11.53
9.31
5.77
2.88
2.49
5.54
11.57
18.85
25.11
28.35
27.42
22.13
13.05
1.17
-12.41
-26.49
-39.91
-51.56
-60.56
-66.38
-69.01
-68.86
-66.62
-63.03
-58.68
-53.85
-48.49
-42.23
-34.64
-25.46
-14.79
-3.11
8.88
20.55
31.42
41.12
49.17
54.89
57.47
56.32
51.51
43.99
35.50
28.02
23.19
21.78
23.46
27.00
30.62
32.47
31.04
25.61
16.37
4.49
-8.18
-19.53
-27.70
-31.37
-30.04
-24.09
-14.77
-4.02
5.96
13.30
17.05
17.48
15.89
14.06
13.53
15.06
18.44
22.69
26.53
28.81
28.92
26.85
23.10
18.43
13.55
8.77
3.97
-1.26
-7.29
-14.10
-21.29
-28.26
-34.53
-39.87
-44.18
-47.22
-48.42
-47.06
-42.76
-35.98
-28.07
-20.84
-15.59
-12.40
-10.18
-7.21
-2.33
4.40
11.66
17.58
20.74
20.79
18.48
15.05
11.59
8.55
5.80
2.99
-0.11
-3.38
-6.54
-9.36
-11.89
-14.54
-17.90
-22.35
-27.72
-33.08
-37.01
-38.06
-35.38
-29.10
-20.14
-9.95
0.16
9.34
17.26
24.01
29.75
34.56
38.29
40.67
41.40
40.39
37.82
34.16
30.00
25.87
22.13
18.94
16.38
14.58
13.68
13.76
14.67
16.00
17.11
17.28
15.93
12.71
7.54
0.71
-7.14
-15.04
-21.79
-26.16
-27.28
-24.84
-19.21
-11.40
-2.83
5.10
11.55
16.50
20.86
25.88
32.50
40.72
49.48
57.13
62.22
64.11
63.20
60.50
57.01
53.25
49.11
44.24
38.45
31.99
25.47
19.52
14.35
9.66
4.75
-1.07
-8.08
-15.96
-23.92
-31.20
-37.39
-42.58
-47.09
-51.06
-54.20
-55.84
-55.37
-52.70
-48.45
-43.68
-39.46
-36.37
-34.47
-33.50
-33.29
-33.97
-35.98
-39.57
-44.40
-49.40
-53.01
-53.85
-51.36
-46.14
-39.81
-34.36
-31.38
-31.53
-34.33
-38.48
-42.30
-44.21
-43.03
-38.17
-29.67
-18.28
-5.36
7.41
18.47
26.91
32.82
37.28
41.71
47.14
53.53
59.64
63.57
63.70
59.42
51.43
41.36
31.05
21.95
14.89
10.26
8.16
8.41
10.22
12.06
11.82
7.60
-1.36
-14.08
-28.06
-40.15
-47.76
-49.76
-46.59
-39.70
-30.68
-20.62
-9.97
1.10
12.17
22.41
30.74
36.30
38.87
38.88
37.15
34.39
30.92
26.71
21.73
16.35
11.38
7.80
6.31
6.84
8.50
9.84
9.36
6.20
0.41
-7.08
-14.77
-21.26
-25.70
-27.97
-28.44
-27.49
-25.11
-20.83
-14.15
-5.08
5.43
15.75
24.09
29.28
31.08
30.10
27.30
23.44
18.86
13.74
8.37
3.42
-0.22
-1.87
-1.41
0.54
2.90
4.54
4.71
3.19
0.17
-3.95
-8.73
-13.64
-18.02
-21.10
-22.15
-20.72
-16.78
-10.64
-2.84
5.98
15.00
23.15
29.13
31.77
30.62
26.21
20.00
13.61
7.98
2.85
-2.95
-10.67
-20.67
-31.92
-42.46
-50.35
-54.60
-55.74
-55.36
-55.35
-56.93
-60.08
-63.60
-65.83
-65.39
-61.78
-55.39
-47.11
-37.74
-27.65
-16.86
-5.56
5.47
14.81
21.04
23.67
23.72
23.53
25.70
31.74
41.12
51.51
59.84
63.75
62.65
57.71
51.03
44.53
39.06
34.23
28.96
22.19
13.47
2.99
-8.58
-20.38
-31.57
-41.24
-48.49
-52.49
-52.71
-49.23
-42.75
-34.43
-25.56
-17.18
-9.87
-3.64
1.89
7.29
12.99
19.04
25.00
30.04
33.22
33.91
32.08
28.45
24.22
20.66
18.66
18.47
19.66
21.15
21.47
19.09
12.88
2.67
-10.41
-23.99
-35.06
-40.73
-39.19
-30.22
-15.24
3.04
21.34
36.51
46.34
50.02
48.38
43.57
38.36
35.10
34.85
37.03
39.75
40.77
38.43
32.31
23.11
12.16
0.79
-10.07
-19.88
-28.23
-34.74
-39.18
-41.56
-42.27
-41.76
-40.23
-37.51
-33.22
-27.22
-19.97
-12.56
-6.19
-1.58
1.47
4.04
7.37
12.24
18.38
24.65
29.58
32.00
31.53
28.57
24.11
19.25
14.89
11.52
9.12
7.24
5.06
1.59
-4.14
-12.79
-24.55
-38.90
-54.48
-69.11
-80.07
-84.64
-80.76
-67.85
-47.06
-21.15
6.27
31.69
52.54
67.49
76.36
79.70
78.49
73.93
67.38
60.29
53.93
49.09
46.00
44.34
43.55
43.04
42.35
41.08
38.84
35.23
29.99
23.12
14.98
6.22
-2.37
-10.05
-16.26
-20.66
-23.27
-24.43
-24.79
-25.13
-26.11
-28.10
-31.01
-34.43
-37.70
-40.21
-41.52
-41.57
-40.70
-39.59
-39.06
-39.70
-41.58
-44.09
-46.11
-46.42
-44.21
-39.44
-32.91
-25.91
-19.87
-15.95
-14.86
-16.77
-21.27
-27.33
-33.42
-37.67
-38.34
-34.37
-25.77
-13.73
-0.17
12.94
24.32
33.67
41.50
48.49
54.97
60.63
64.69
66.41
65.42
61.77
55.83
48.05
39.00
29.53
20.81
14.14
10.44
9.61
10.32
10.31
7.18
-0.73
-13.70
-30.52
-48.77
-65.47
-77.74
-83.39
-81.40
-72.12
-57.22
-39.26
-21.05
-4.88
7.94
17.13
23.14
26.75
28.61
29.13
28.59
27.22
25.30
23.13
20.95
18.78
16.51
13.95
11.07
8.04
5.14
2.56
0.07
-3.01
-7.59
-14.35
-23.16
-32.85
-41.28
-46.06
-45.41
-38.93
-27.79
-14.27
-0.92
10.34
18.71
24.37
27.96
30.03
30.67
29.65
26.75
22.11
16.34
10.33
4.89
0.56
-2.46
-4.11
-4.32
-3.08
-0.63
2.37
4.85
5.61
4.00
0.23
-4.51
-8.46
-10.06
-8.60
-4.47
1.15
6.89
11.85
15.84
19.30
22.87
26.96
31.43
35.63
38.65
39.64
38.10
34.08
28.14
21.31
14.92
10.33
8.55
9.79
13.21
16.99
18.81
16.62
9.37
-2.63
-17.83
-33.96
-48.71
-60.19
-67.09
-68.81
-65.31
-57.28
-46.05
-33.48
-21.48
-11.58
-4.51
-0.23
1.87
2.67
3.09
4.04
6.31
10.45
16.49
23.85
31.41
38.02
42.93
46.05
47.74
48.30
47.50
44.53
38.38
28.53
15.33
0.12
-15.28
-29.08
-39.97
-47.28
-50.86
-50.93
-48.03
-42.99
-36.97
-31.17
-26.56
-23.55
-21.81
-20.57
-18.95
-16.40
-12.92
-9.00
-5.32
-2.55
-1.04
-0.77
-1.31
-2.01
-2.11
-1.05
1.38
4.92
8.91
12.59
15.36
17.11
18.12
18.92
19.90
21.02
21.75
21.23
18.56
13.15
4.95
-5.55
-17.27
-28.79
-38.53
-44.98
-47.00
-44.13
-36.70
-25.83
-13.21
-0.63
10.44
19.19
25.54
29.96
33.22
36.05
38.97
42.11
45.20
47.60
48.35
46.45
41.14
32.18
20.02
5.70
-9.35
-23.70
-36.23
-46.18
-53.23
-57.28
-58.45
-56.98
-53.27
-47.94
-41.67
-34.97
-28.02
-20.51
-11.92
-1.85
9.50
21.20
31.84
40.04
45.04
46.89
46.29
44.03
40.54
35.76
29.49
21.88
13.84
6.88
2.46
1.30
2.85
5.37
6.61
4.59
-1.69
-12.03
-25.14
-39.02
-51.45
-60.43
-64.58
-63.33
-56.96
-46.48
-33.33
-19.05
-4.98
7.80
18.58
27.04
33.30
37.97
41.88
45.79
49.92
53.86
56.81
58.06
57.53
55.74
53.40
50.93
48.00
43.74
37.24
28.17
17.02
4.94
-6.79
-17.27
-26.22
-33.81
-40.30
-45.60
-49.24
-50.55
-49.11
-45.13
-39.51
-33.51
-28.17
-23.85
-20.20
-16.55
-12.62
-8.87
-6.42
-6.45
-9.42
-14.67
-20.55
-25.08
-26.72
-24.94
-20.33
-14.21
-8.19
-3.58
-1.14
-1.04
-2.95
-6.24
-10.14
-13.81
-16.49
-17.56
-16.77
-14.34
-10.93
-7.42
-4.51
-2.48
-1.07
0.27
2.10
4.74
8.18
12.11
16.07
19.46
21.69
22.31
21.11
18.26
14.24
9.74
5.40
1.71
-1.12
-3.09
-4.35
-5.06
-5.49
-5.93
-6.65
-7.84
-9.48
-11.32
-12.93
-13.87
-13.80
-12.56
-10.25
-7.06
-3.20
1.19
6.06
11.34
16.88
22.43
27.71
32.52
36.69
40.00
42.00
42.03
39.39
33.82
25.77
16.48
7.54
0.31
-4.59
-7.40
-8.85
-9.58
-9.84
-9.38
-7.91
-5.50
-2.71
-0.53
0.16
-1.04
-3.90
-7.69
-11.57
-14.89
-17.32
-18.80
-19.32
-18.87
-17.37
-14.82
-11.40
-7.45
-3.39
0.44
3.87
6.86
9.41
11.48
12.98
13.88
14.28
14.36
14.31
14.21
13.95
13.40
12.44
11.12
9.59
8.02
6.48
4.93
3.32
1.59
-0.20
-1.95
-3.64
-5.28
-6.88
-8.41
-9.73
-10.66
-11.15
-11.30
-11.39
-11.76
-12.63
-14.03
-15.83
-17.81
-19.76
-21.51
-22.85
-23.50
-23.06
-21.20
-17.74
-12.82
-6.89
-0.67
5.11
9.78
12.93
14.46
14.53
13.53
11.93
10.18
8.62
7.45
6.77
6.59
6.89
7.55
8.41
9.17
9.55
9.31
8.37
6.83
4.95
3.04
1.31
-0.13
-1.33
-2.43
-3.53
-4.67
-5.79
-6.81
-7.68
-8.48
-9.32
-10.23
-11.10
-11.64
-11.49
-10.42
-8.45
-5.89
-3.26
-1.03
0.47
1.23
1.40
1.28
1.08
0.91
0.79
0.67
0.51
0.31
0.10
-0.16
-0.52
-1.16
-2.18
-3.61
-5.34
-7.15
-8.82
-10.21
-11.30
-12.26
-13.32
-14.69
-16.49
-18.63
-20.78
-22.51
-23.36
-23.06
-21.57
-19.15
-16.19
-13.12
-10.35
-8.21
-6.90
-6.43
-6.50
-6.41
-5.18
-1.89
3.91
11.83
20.67
28.77
34.71
37.78
38.24
37.10
35.73
35.37
36.80
40.24
45.25
50.88
55.85
58.87
59.10
56.50
51.97
46.99
43.06
41.02
40.80
41.52
42.10
41.79
40.56
38.90
37.45
36.50
35.75
34.58
32.38
28.97
24.72
20.33
16.39
13.23
10.77
8.80
7.20
6.07
5.55
5.78
6.64
7.88
9.19
10.44
11.62
12.79
13.93
14.79
15.04
14.36
12.71
10.36
7.79
5.49
3.74
2.42
1.09
-0.76
-3.52
-7.26
-11.75
-16.58
-21.38
-25.84
-29.67
-32.69
-34.72
-35.90
-36.59
-37.41
-38.79
-40.64
-42.13
-41.96
-39.01
-33.05
-25.10
-17.11
-11.19
-8.60
-9.31
-12.07
-15.16
-17.23
-17.75
-17.07
-15.88
-14.83
-14.16
-13.80
-13.57
-13.46
-13.61
-14.27
-15.55
-17.33
-19.15
-20.46
-20.72
-19.71
-17.62
-15.01
-12.61
-11.03
-10.50
-10.84
-11.55
-12.12
-12.26
-11.98
-11.53
-11.26
-11.45
-12.20
-13.45
-14.99
-16.52
-17.73
-18.38
-18.43
-18.01
-17.38
-16.75
-16.16
-15.52
-14.64
-13.49
-12.22
-11.14
-10.52
-10.42
-10.62
-10.72
-10.41
-9.55
-8.26
-6.73
-5.15
-3.57
-1.97
-0.39
1.07
2.27
3.12
3.65
4.00
4.23
4.27
3.86
2.77
0.95
-1.28
-3.39
-4.77
-5.08
-4.40
-3.14
-1.90
-1.15
-1.14
-1.86
-3.13
-4.67
-6.14
-7.22
-7.60
-7.05
-5.49
-3.04
-0.06
2.95
5.42
6.88
7.05
5.99
4.10
2.02
0.38
-0.39
-0.29
0.35
0.98
1.20
0.86
0.16
-0.53
-0.94
-1.00
-0.92
-0.98
-1.39
-2.16
-3.13
-4.08
-4.92
-5.77
-6.85
-8.32
-10.11
-11.86
-13.09
-13.40
-12.65
-10.95
-8.55
-5.59
-2.04
2.25
7.39
13.24
19.35
25.11
29.92
33.46
35.70
36.87
37.26
37.16
36.71
36.00
35.13
34.19
33.30
32.48
31.66
30.67
29.42
28.04
26.88
26.47
27.23
29.33
32.69
37.13
42.52
48.66
55.15
61.08
65.11
66.00
63.28
57.68
50.97
44.96
40.49
37.05
33.23
27.99
21.49
15.12
10.43
7.86
6.23
3.50
-1.60
-8.39
-14.20
-15.93
-12.03
-3.74
5.33
11.04
10.76
4.50
-5.30
-15.09
-21.86
-24.15
-22.34
-18.12
-13.62
-10.59
-9.76
-10.73
-12.16
-12.46
-10.48
-6.11
-0.42
4.76
7.37
5.75
-1.09
-13.16
-28.98
-44.77
-54.52
-51.39
-30.61
7.26
54.77
99.02
126.28
127.82
103.77
63.05
19.36
-14.40
-30.66
-28.33
-11.43
13.57
39.88
61.30
72.47
69.33
50.29
17.23
-24.01
-64.93
-96.49
-111.73
-107.67
-85.47
-49.41
-5.16
41.89
88.01
131.56
172.77
212.84
252.67
292.02
328.90
359.77
380.42
387.22
378.33
354.33
318.17
274.02
226.21
178.08
131.57
87.35
45.31
4.86
-34.75
-74.44
-115.30
-158.05
-202.48
-246.78
-287.43
-320.00
-340.76
-348.18
-343.81
-331.84
-317.28
-304.01
-293.53
-284.96
-276.26
-265.79
-253.17
-239.23
-225.23
-211.89
-199.05
-185.87
-171.46
-155.39
-138.10
-120.78
-105.07
-92.41
-83.59
-78.35
-75.45
-73.04
-69.34
-63.26
-54.67
-44.21
-32.86
-21.48
-10.49
0.02
10.02
19.29
27.36
33.63
37.62
39.14
38.29
35.40
30.95
25.34
18.91
11.87
4.34
-3.50
-11.36
-18.76
-25.11
-29.87
-32.79
-34.07
-34.32
-34.40
-35.04
-36.52
-38.61
-40.61
-41.70
-41.24
-38.98
-35.07
-29.92
-24.07
-17.94
-11.92
-6.40
-1.78
1.52
3.29
3.63
3.02
2.12
1.58
1.80
2.92
4.86
7.47
10.58
13.95
17.20
19.77
21.11
20.92
19.29
16.68
13.72
10.98
8.78
7.24
6.31
5.87
5.70
5.51
4.93
3.67
1.66
-0.90
-3.60
-6.02
-7.92
-9.35
-10.54
-11.64
-12.63
-13.21
-13.12
-12.30
-11.06
-10.02
-9.83
-10.81
-12.71
-14.79
-16.02
-15.57
-13.07
-8.71
-3.17
2.70
8.12
12.57
15.83
18.00
19.41
20.49
21.71
23.32
25.41
27.78
30.10
32.07
33.55
34.55
35.23
35.74
36.10
36.21
35.93
35.19
34.09
32.89
31.90
31.33
31.20
31.23
30.95
29.85
27.55
23.92
19.09
13.28
6.77
-0.12
-6.96
-13.13
-17.84
-20.42
-20.55
-18.47
-14.87
-10.61
-6.48
-2.98
-0.42
0.99
1.11
0.03
-1.90
-3.94
-5.30
-5.43
-4.21
-2.11
0.17
2.01
3.15
3.66
3.85
4.09
4.57
5.31
6.09
6.64
6.70
6.32
5.83
5.77
6.60
8.34
10.42
11.84
11.66
9.45
5.60
1.21
-2.36
-4.08
-3.64
-1.52
1.36
4.09
6.12
7.41
8.18
8.66
8.80
8.25
6.58
3.51
-0.82
-5.83
-10.75
-14.87
-17.83
-19.70
-20.92
-22.03
-23.51
-25.52
-27.87
-30.02
-31.31
-31.23
-29.66
-26.98
-23.97
-21.48
-20.11
-19.94
-20.58
-21.32
-21.49
-20.61
-18.42
-14.90
-10.07
-4.03
2.97
10.47
17.80
24.22
29.11
32.24
33.81
34.40
34.77
35.53
37.01
39.13
41.51
43.65
45.16
45.88
45.94
45.63
45.27
45.10
45.20
45.41
45.49
45.15
44.19
42.60
40.55
38.36
36.31
34.54
33.01
31.54
29.80
27.51
24.41
20.27
14.98
8.52
0.95
-7.54
-16.73
-26.31
-35.96
-45.33
-54.03
-61.60
-67.61
-71.59
-73.21
-72.27
-68.79
-63.02
-55.46
-46.78
-37.66
-28.71
-20.31
-12.67
-5.88
-0.13
4.30
6.95
7.49
5.97
2.95
-0.39
-2.70
-2.75
-0.00
5.23
11.82
18.22
22.94
25.04
24.42
21.82
18.55
15.96
15.05
16.05
18.52
21.53
24.07
25.37
25.04
23.05
19.58
14.85
9.18
2.95
-3.32
-9.06
-13.86
-17.64
-20.76
-23.84
-27.51
-31.89
-36.51
-40.32
-42.14
-41.18
-37.46
-31.84
-25.68
-20.33
-16.58
-14.41
-13.01
-11.04
-7.10
-0.19
9.96
22.76
36.82
50.39
61.75
69.79
74.14
75.17
73.77
70.93
67.53
64.17
61.10
58.31
55.53
52.35
48.38
43.54
38.06
32.56
27.79
24.35
22.39
21.61
21.35
20.90
19.82
17.94
15.37
12.28
8.76
4.85
0.62
-3.83
-8.30
-12.65
-16.87
-21.13
-25.65
-30.56
-35.71
-40.71
-45.02
-48.18
-49.90
-50.20
-49.29
-47.53
-45.22
-42.54
-39.47
-35.87
-31.56
-26.50
-20.87
-15.01
-9.35
-4.24
0.17
3.91
7.11
9.95
12.56
15.02
17.37
19.69
22.01
24.31
26.52
28.52
30.13
31.18
31.57
31.37
31.03
31.25
32.91
36.68
42.74
50.54
58.93
66.57
72.29
75.49
76.10
74.41
70.83
65.70
59.24
51.66
43.27
34.48
25.76
17.53
10.10
3.57
-2.16
-7.41
-12.74
-18.80
-26.24
-35.28
-45.60
-56.05
-64.85
-69.94
-69.64
-63.27
-51.46
-36.17
-20.08
-5.87
4.48
10.03
10.81
7.49
0.93
-8.01
-18.55
-29.76
-40.54
-49.66
-55.99
-58.65
-57.25
-51.96
-43.43
-32.75
-21.24
-10.27
-1.02
5.59
9.01
9.05
5.85
-0.02
-7.68
-16.02
-23.97
-30.58
-34.95
-35.94
-32.12
-22.18
-5.73
15.86
39.32
60.30
74.83
80.80
78.51
70.06
58.20
45.24
32.78
22.20
15.06
12.99
16.77
25.49
36.40
45.95
51.37
51.94
49.10
45.47
43.40
43.91
46.58
50.24
53.92
57.39
60.98
65.03
69.32
72.89
74.25
71.85
64.55
51.97
34.69
14.21
-7.29
-27.38
-43.95
-55.67
-62.25
-64.35
-63.21
-60.28
-56.85
-53.93
-52.23
-52.19
-53.94
-57.21
-61.32
-65.34
-68.35
-69.84
-69.84
-68.92
-67.77
-66.78
-65.73
-63.83
-60.11
-53.90
-45.17
-34.59
-23.22
-12.13
-2.07
6.66
14.14
20.57
26.23
31.28
35.76
39.56
42.46
44.23
44.78
44.24
43.04
41.71
40.74
40.29
40.16
39.93
39.21
37.85
36.04
34.18
32.67
31.67
31.08
30.56
29.75
28.34
26.18
23.29
19.89
16.53
14.18
14.02
17.08
23.62
32.73
42.44
50.36
54.46
53.83
48.66
39.86
28.40
14.90
-0.34
-16.89
-33.76
-49.39
-61.93
-69.88
-72.50
-69.97
-63.17
-53.40
-42.10
-30.66
-20.30
-11.94
-6.11
-2.80
-1.55
-1.49
-1.63
-1.11
0.50
3.02
5.65
7.19
6.36
2.29
-5.22
-15.59
-27.54
-39.41
-49.53
-56.54
-59.70
-59.02
-55.28
-49.74
-43.86
-38.74
-34.82
-31.78
-28.70
-24.51
-18.50
-10.61
-1.53
7.55
15.38
21.01
24.09
24.75
23.51
20.90
17.40
13.34
9.02
4.71
0.68
-2.87
-5.84
-8.26
-10.21
-11.78
-12.89
-13.35
-12.90
-11.30
-8.50
-4.69
-0.32
4.06
7.95
11.12
13.62
15.72
17.65
19.46
20.93
21.74
21.63
20.60
18.91
16.98
15.19
13.83
13.06
12.99
13.64
14.97
16.74
18.48
19.64
19.70
18.46
16.14
13.25
10.41
8.07
6.44
5.43
4.84
4.44
4.07
3.61
2.92
1.82
0.13
-2.22
-5.19
-8.51
-11.83
-14.81
-17.26
-19.20
-20.81
-22.21
-23.29
-23.69
-22.96
-20.80
-17.36
-13.22
-9.15
-5.82
-3.46
-1.88
-0.65
0.63
2.14
3.80
5.40
6.79
7.91
8.79
9.52
10.17
10.74
11.18
11.41
11.31
10.85
10.05
9.06
8.09
7.39
7.15
7.47
8.40
9.93
11.90
14.06
16.05
17.47
18.04
17.71
16.70
15.36
14.00
12.76
11.53
10.06
8.14
5.74
3.01
0.24
-2.31
-4.50
-6.35
-8.01
-9.62
-11.29
-13.08
-15.00
-17.04
-19.12
-21.08
-22.64
-23.49
-23.29
-21.89
-19.37
-16.01
-12.26
-8.54
-5.15
-2.26
0.17
2.20
3.93
5.37
6.53
7.38
7.93
8.19
8.21
8.06
7.80
7.51
7.21
6.91
6.60
6.27
5.97
5.80
5.82
6.03
6.38
6.76
7.02
7.03
6.75
6.18
5.43
4.62
3.86
3.20
2.56
1.83
0.88
-0.36
-1.83
-3.39
-4.89
-6.18
-7.19
-7.90
-8.37
-8.80
-9.41
-10.51
-12.33
-14.93
-18.06
-21.21
-23.73
-25.01
-24.69
-22.79
-19.65
-15.83
-11.88
-8.20
-5.01
-2.33
-0.10
1.69
2.99
3.75
3.97
3.81
3.56
3.52
3.94
4.82
5.97
6.99
7.32
6.44
4.01
0.08
-4.76
-9.48
-12.91
-14.11
-12.84
-9.59
-5.46
-1.69
0.79
1.60
0.96
-0.51
-2.09
-3.19
-3.56
-3.41
-3.28
-3.84
-5.50
-8.09
-10.86
-12.78
-13.06
-11.63
-9.24
-7.12
-6.36
-7.46
-10.12
-13.62
-17.17
-20.28
-22.84
-24.84
-26.21
-26.69
-25.95
-23.82
-20.47
-16.43
-12.37
-8.91
-6.40
-4.79
-3.77
-2.91
-1.84
-0.36
1.49
3.54
5.55
7.25
8.47
9.14
9.36
9.31
9.22
9.30
9.58
9.94
10.16
9.97
9.32
8.35
7.43
6.99
7.31
8.41
9.98
11.53
12.63
13.04
12.80
12.19
11.47
10.77
10.03
9.01
7.47
5.25
2.40
-0.89
-4.26
-7.20
-9.17
-9.67
-8.42
-5.51
-1.32
3.49
8.24
12.39
15.65
17.91
19.17
19.57
19.29
18.59
17.74
16.90
16.09
15.28
14.55
14.27
14.97
16.99
20.10
23.33
25.17
24.27
20.17
13.64
6.56
1.15
-0.84
1.26
6.94
14.95
23.78
32.24
39.57
45.39
49.54
51.97
52.83
52.59
52.12
52.48
54.53
58.42
63.41
68.00
70.47
69.50
64.60
56.18
45.25
33.09
20.84
9.45
-0.31
-7.91
-13.08
-15.97
-17.17
-17.61
-18.23
-19.71
-22.25
-25.61
-29.41
-33.42
-37.77
-42.95
-49.43
-57.21
-65.52
-72.78
-77.16
-77.28
-72.98
-65.53
-57.23
-50.60
-47.32
-47.74
-50.76
-54.54
-57.15
-57.28
-54.53
-49.26
-42.25
-34.43
-26.57
-19.29
-13.01
-8.00
-4.38
-2.07
-0.90
-0.60
-1.02
-2.15
-4.19
-7.38
-11.82
-17.21
-22.91
-28.15
-32.25
-34.94
-36.26
-36.45
-35.68
-33.97
-31.29
-27.71
-23.52
-19.09
-14.66
-10.11
-4.97
1.35
9.16
18.23
27.69
36.31
42.85
46.39
46.68
44.12
39.70
34.68
30.34
27.60
26.91
28.10
30.51
33.19
35.15
35.65
34.29
31.13
26.52
20.99
15.06
9.18
3.64
-1.35
-5.70
-9.45
-12.82
-16.14
-19.69
-23.43
-26.92
-29.40
-30.11
-28.59
-24.90
-19.45
-12.79
-5.23
3.13
12.21
21.54
30.09
36.46
39.47
38.73
34.99
29.81
25.02
21.91
20.81
21.18
21.99
22.28
21.48
19.45
16.35
12.40
7.78
2.70
-2.53
-7.42
-11.38
-13.89
-14.74
-14.11
-12.59
-10.97
-9.96
-9.93
-10.82
-12.25
-13.70
-14.74
-15.11
-14.74
-13.68
-12.05
-10.05
-8.08
-6.66
-6.41
-7.88
-11.36
-16.74
-23.50
-30.85
-37.84
-43.50
-47.00
-47.66
-45.13
-39.39
-30.92
-20.61
-9.68
0.64
9.39
16.03
20.54
23.27
24.71
25.32
25.41
25.15
24.63
23.85
22.78
21.40
19.65
17.54
15.06
12.22
9.04
5.54
1.74
-2.27
-6.32
-10.10
-13.27
-15.47
-16.56
-16.64
-16.11
-15.50
-15.25
-15.51
-16.07
-16.54
-16.53
-15.95
-15.05
-14.22
-13.84
-13.99
-14.49
-14.95
-15.03
-14.51
-13.43
-11.94
-10.24
-8.49
-6.69
-4.78
-2.71
-0.45
2.01
4.67
7.56
10.73
14.16
17.61
20.61
22.62
23.15
22.13
19.89
17.05
14.33
12.16
10.59
9.33
8.02
6.39
4.46
2.47
0.71
-0.65
-1.67
-2.62
-3.74
-5.15
-6.75
-8.26
-9.31
-9.59
-8.85
-6.99
-4.12
-0.63
2.84
5.48
6.58
5.81
3.40
0.01
-3.43
-6.12
-7.55
-7.56
-6.27
-4.02
-1.23
1.64
4.22
6.40
8.33
10.38
12.89
15.96
19.47
23.14
26.75
30.20
33.49
36.52
38.97
40.40
40.43
38.97
36.30
32.98
29.58
26.43
23.57
20.79
17.87
14.73
11.47
8.31
5.52
3.28
1.68
0.71
0.30
0.34
0.69
1.21
1.78
2.39
3.11
4.03
5.13
6.21
6.97
7.11
6.59
5.73
5.17
5.64
7.55
10.87
15.04
19.28
22.84
25.33
26.70
27.12
26.74
25.57
23.50
20.43
16.48
12.05
7.73
4.10
1.56
0.16
-0.30
-0.16
0.26
0.77
1.29
1.86
2.41
2.71
2.43
1.23
-1.04
-4.23
-7.87
-11.43
-14.50
-16.91
-18.55
-19.21
-18.44
-15.62
-10.39
-2.98
5.57
13.74
20.00
23.26
23.22
20.13
14.51
6.90
-2.29
-12.54
-23.16
-33.24
-41.84
-48.31
-52.60
-55.23
-57.11
-59.08
-61.37
-63.51
-64.45
-63.18
-59.27
-53.21
-46.19
-39.62
-34.48
-31.04
-28.91
-27.47
-26.23
-25.03
-23.97
-23.14
-22.58
-22.20
-21.90
-21.60
-21.26
-20.79
-20.07
-18.98
-17.46
-15.55
-13.33
-10.87
-8.21
-5.40
-2.56
0.03
2.12
3.69
5.00
6.65
9.24
12.92
17.20
20.92
22.74
21.74
17.83
11.83
5.09
-1.03
-5.67
-8.61
-10.09
-10.51
-10.18
-9.19
-7.66
-5.81
-4.15
-3.41
-4.17
-6.68
-10.59
-15.03
-18.97
-21.58
-22.59
-22.35
-21.59
-21.05
-21.15
-21.82
-22.65
-23.13
-22.86
-21.71
-19.74
-17.18
-14.33
-11.54
-9.21
-7.65
-7.11
-7.61
-8.90
-10.46
-11.56
-11.49
-9.77
-6.39
-1.85
2.83
6.54
8.33
7.84
5.35
1.61
-2.47
-6.06
-8.62
-9.80
-9.31
-6.95
-2.67
3.29
10.24
17.22
23.26
27.72
30.45
31.75
32.13
32.05
31.79
31.43
31.01
30.61
30.38
30.49
31.00
31.82
32.69
33.25
33.14
32.17
30.33
27.85
25.13
22.55
20.43
18.88
17.86
17.16
16.51
15.55
13.91
11.29
7.58
3.03
-1.84
-6.30
-9.83
-12.27
-13.97
-15.51
-17.43
-19.93
-22.79
-25.60
-27.94
-29.67
-30.76
-31.23
-30.95
-29.72
-27.43
-24.29
-20.90
-18.01
-16.25
-15.78
-16.23
-16.80
-16.61
-15.04
-11.87
-7.33
-1.82
4.14
10.16
15.91
21.07
25.36
28.51
30.39
31.06
30.82
30.04
29.01
27.79
26.21
23.98
20.86
16.71
11.57
5.57
-1.18
-8.51
-16.13
-23.59
-30.31
-35.68
-39.35
-41.27
-41.79
-41.43
-40.66
-39.69
-38.44
-36.62
-33.92
-30.20
-25.50
-20.07
-14.28
-8.45
-2.86
2.32
6.99
11.11
14.62
17.48
19.64
21.06
21.83
22.05
21.91
21.51
20.98
20.36
19.76
19.36
19.37
20.00
21.31
23.24
25.57
28.01
30.24
31.96
32.82
32.53
30.96
28.24
24.82
21.32
18.33
16.13
14.62
13.36
11.84
9.72
6.92
3.63
0.12
-3.39
-6.82
-10.14
-13.29
-16.08
-18.19
-19.36
-19.48
-18.72
-17.43
-16.00
-14.60
-13.22
-11.62
-9.59
-7.15
-4.52
-2.10
-0.27
0.75
0.92
0.32
-0.86
-2.40
-4.01
-5.34
-6.05
-5.97
-5.15
-3.89
-2.58
-1.56
-0.93
-0.57
-0.24
0.23
0.88
1.56
2.03
2.09
1.66
0.86
-0.04
-0.76
-1.07
-0.96
-0.59
-0.25
-0.20
-0.58
-1.34
-2.35
-3.49
-4.71
-6.07
-7.63
-9.28
-10.78
-11.71
-11.67
-10.49
-8.23
-5.27
-2.12
0.73
3.00
4.66
5.92
7.07
8.38
9.90
11.54
13.09
14.33
15.14
15.48
15.38
14.86
14.00
12.91
11.74
10.74
10.08
9.86
9.98
10.21
10.29
10.00
9.27
8.16
6.81
5.35
3.89
2.48
1.18
0.06
-0.79
-1.35
-1.70
-2.01
-2.48
-3.26
-4.33
-5.57
-6.77
-7.80
-8.71
-9.65
-10.76
-12.02
-13.16
-13.80
-13.55
-12.31
-10.22
-7.66
-4.99
-2.45
-0.08
2.17
4.30
6.24
7.85
8.98
9.58
9.68
9.32
8.54
7.33
5.77
4.06
2.57
1.69
1.70
2.60
4.15
5.93
7.53
8.74
9.58
10.26
11.02
12.01
13.22
14.48
15.54
16.19
16.33
15.87
14.83
13.17
10.92
8.18
5.16
2.21
-0.30
-2.11
-3.20
-3.81
-4.29
-5.01
-6.13
-7.64
-9.32
-10.98
-12.48
-13.76
-14.82
-15.62
-16.02
-15.83
-14.87
-13.00
-10.26
-6.82
-3.01
0.79
4.24
7.20
9.75
12.15
14.72
17.60
20.68
23.65
26.01
27.39
27.55
26.51
24.43
21.59
18.36
15.13
12.30
10.17
8.86
8.22
7.93
7.65
7.20
6.72
6.54
7.03
8.23
9.83
11.15
11.58
10.81
9.02
6.75
4.59
2.92
1.86
1.29
1.04
0.83
0.24
-1.34
-4.54
-9.69
-16.48
-23.92
-30.58
-35.22
-37.28
-37.21
-36.15
-35.34
-35.43
-36.08
-36.07
-33.83
-28.06
-18.26
-4.90
10.66
26.44
40.15
49.68
53.60
51.72
45.44
37.66
32.00
31.67
38.15
50.62
66.33
81.75
94.10
102.38
107.51
111.59
116.80
124.40
134.50
146.36
158.92
170.99
181.36
188.95
193.18
194.40
194.12
194.50
197.37
203.20
210.60
216.73
218.52
213.86
202.35
185.30
165.02
143.91
123.87
106.09
91.10
78.87
68.85
59.89
50.30
38.14
21.73
0.21
-25.90
-54.75
-83.68
-110.29
-133.47
-153.83
-173.51
-195.17
-220.74
-250.37
-282.05
-312.01
-335.64
-348.69
-348.56
-335.09
-310.79
-280.22
-248.69
-220.68
-198.72
-183.02
-172.01
-163.48
-155.57
-147.32
-138.50
-129.15
-119.24
-108.60
-97.24
-85.65
-74.71
-65.39
-58.27
-53.24
-49.61
-46.44
-42.98
-38.83
-34.08
-29.15
-24.69
-21.39
-19.77
-19.97
-21.53
-23.31
-23.68
-21.02
-14.43
-4.27
7.64
18.58
25.95
28.32
25.91
20.20
12.99
5.45
-2.24
-10.46
-19.25
-27.66
-33.91
-36.23
-33.94
-28.03
-20.76
-14.76
-11.82
-12.33
-15.38
-19.31
-22.55
-24.12
-23.75
-21.71
-18.51
-14.59
-10.24
-5.61
-0.93
3.38
6.68
8.19
7.35
4.13
-0.84
-6.40
-11.17
-14.07
-14.55
-12.66
-8.89
-3.85
1.96
8.21
14.72
21.36
27.90
33.99
39.18
42.99
45.01
45.09
43.44
40.66
37.52
34.69
32.36
30.06
26.71
21.00
11.81
-1.25
-17.61
-35.80
-53.77
-69.36
-80.75
-86.78
-87.24
-82.89
-75.35
-66.63
-58.56
-52.09
-47.00
-42.07
-35.76
-27.08
-16.19
-4.29
7.04
16.79
24.93
32.36
40.10
48.57
57.29
65.25
71.66
76.55
80.81
85.76
92.39
100.83
110.30
119.33
126.38
130.09
129.54
124.30
114.47
100.83
84.90
68.87
55.07
45.38
40.55
39.84
41.35
42.66
41.73
37.47
29.91
19.93
8.78
-2.32
-12.39
-20.80
-27.22
-31.73
-34.83
-37.41
-40.57
-45.20
-51.64
-59.52
-67.82
-75.18
-80.36
-82.59
-81.84
-78.78
-74.68
-71.02
-69.03
-69.27
-71.35
-74.13
-76.09
-76.04
-73.60
-69.31
-64.38
-59.96
-56.55
-53.62
-49.82
-43.51
-33.51
-19.54
-2.43
16.22
34.62
51.34
65.75
78.03
88.80
98.66
107.76
115.79
122.27
126.96
130.10
132.23
133.77
134.49
133.37
129.04
120.42
107.49
91.48
74.44
58.54
45.29
35.34
28.55
24.36
21.80
19.45
15.20
6.48
-8.96
-31.93
-60.96
-92.33
-121.09
-142.88
-155.56
-159.92
-159.15
-157.36
-157.88
-162.22
-170.00
-179.78
-190.04
-199.85
-208.89
-216.78
-222.66
-225.21
-223.19
-216.29
-205.32
-191.60
-176.00
-158.11
-136.50
-109.77
-77.93
-43.01
-8.37
22.88
49.48
72.49
94.62
118.57
145.77
175.96
207.78
239.60
270.03
297.81
321.43
338.99
348.54
348.86
340.21
324.44
304.61
284.13
265.87
251.47
241.24
234.33
229.29
224.69
219.64
213.99
208.31
203.52
200.50
199.83
201.71
206.05
212.42
220.01
227.35
232.42
233.03
227.52
215.43
197.70
176.26
153.21
130.08
107.43
85.12
62.79
40.30
17.89
-4.27
-26.56
-50.17
-77.07
-109.44
-148.94
-195.72
-247.82
-301.06
-349.83
-388.39
-412.68
-421.46
-416.62
-402.31
-383.39
-363.90
-346.11
-330.41
-315.79
-300.58
-283.33
-263.32
-240.89
-217.28
-194.24
-173.22
-154.82
-138.48
-122.97
-107.13
-90.45
-73.30
-56.49
-40.71
-26.23
-13.09
-1.63
7.22
12.07
11.91
6.85
-1.38
-9.90
-15.60
-16.13
-10.61
0.24
14.27
28.35
39.01
43.24
39.68
29.31
15.44
2.66
-4.86
-4.93
2.16
14.40
29.53
46.32
64.63
84.71
105.96
126.39
143.13
153.49
156.04
150.95
139.43
122.88
102.20
77.83
50.31
20.95
-8.06
-34.14
-55.20
-70.48
-80.67
-87.51
-92.86
-98.22
-104.32
-111.29
-118.90
-126.66
-133.77
-139.31
-142.43
-142.83
-141.08
-138.59
-137.15
-138.18
-142.16
-148.37
-155.11
-160.16
-161.36
-157.22
-147.18
-131.71
-112.04
-89.81
-66.64
-43.91
-22.77
-4.12
11.35
23.42
32.50
39.70
46.74
55.56
67.91
84.90
106.67
132.19
159.31
185.17
206.93
222.84
232.73
237.91
240.16
240.67
239.39
235.36
227.68
216.54
203.56
191.10
181.05
173.93
168.70
163.33
155.70
144.16
127.70
105.98
79.36
49.25
18.15
-10.83
-34.72
-51.71
-61.57
-65.65
-66.27
-66.02
-67.12
-71.00
-78.18
-88.26
-100.18
-112.65
-124.56
-135.19
-143.96
-149.99
-151.71
-147.08
-134.50
-113.94
-87.57
-59.29
-33.42
-13.07
0.81
9.51
15.49
21.20
28.18
36.83
46.74
57.11
67.10
75.79
82.19
85.23
83.99
77.82
66.38
49.64
27.87
1.93
-26.39
-54.40
-78.90
-96.98
-106.88
-108.44
-102.89
-92.28
-78.83
-64.37
-50.24
-37.28
-25.92
-16.29
-8.31
-1.85
3.06
6.16
7.14
6.05
3.58
1.24
0.99
4.64
13.04
25.52
39.82
52.72
60.98
62.45
56.75
45.30
30.60
15.36
1.59
-9.84
-19.12
-26.92
-33.79
-39.71
-44.01
-45.76
-44.34
-39.91
-33.61
-27.08
-21.76
-18.24
-15.92
-13.55
-9.94
-4.80
0.89
5.33
6.72
4.07
-2.31
-11.07
-20.47
-29.00
-35.90
-40.98
-44.34
-45.83
-45.00
-41.24
-34.20
-24.12
-12.05
0.41
11.44
19.54
23.81
24.20
21.49
17.13
12.89
10.29
10.17
12.38
15.90
19.23
21.06
20.78
18.65
15.57
12.55
10.22
8.58
7.22
5.63
3.57
1.22
-1.03
-2.76
-3.81
-4.26
-4.37
-4.43
-4.65
-5.08
-5.61
-5.98
-5.88
-5.03
-3.41
-1.24
0.99
2.74
3.68
3.77
3.26
2.52
1.86
1.45
1.35
1.56
2.10
2.98
4.20
5.74
7.63
9.87
12.41
15.13
17.90
20.69
23.75
27.59
32.73
39.39
47.20
55.22
62.34
67.72
71.14
73.09
74.34
75.51
76.53
76.60
74.45
68.86
59.29
46.27
31.24
16.20
2.95
-7.44
-14.91
-20.23
-24.44
-28.33
-32.18
-35.79
-38.83
-41.17
-42.92
-44.31
-45.33
-45.63
-44.61
-41.74
-36.91
-30.51
-23.21
-15.65
-8.13
-0.64
6.97
14.72
22.38
29.49
35.57
40.28
43.50
45.47
46.68
47.72
49.09
50.93
52.87
54.26
54.45
53.20
50.81
47.91
45.00
42.15
38.84
34.33
28.09
20.27
11.71
3.68
-2.66
-6.58
-7.95
-7.10
-4.64
-1.31
2.02
4.46
5.32
4.42
2.36
0.42
0.04
2.17
6.71
12.54
17.94
21.33
21.65
18.49
11.85
1.92
-10.84
-25.56
-40.84
-55.00
-66.55
-74.62
-79.12
-80.53
-79.44
-76.25
-71.05
-63.83
-54.77
-44.49
-34.03
-24.52
-16.96
-11.86
-9.13
-8.22
-8.31
-8.66
-8.81
-8.37
-6.72
-2.84
4.26
14.85
27.65
39.70
47.33
47.84
40.95
29.26
17.18
9.04
7.30
11.86
20.59
30.51
38.82
43.31
42.19
33.88
17.37
-6.99
-36.80
-67.44
-93.24
-109.28
-113.31
-106.69
-93.83
-80.39
-71.18
-68.49
-71.81
-78.68
-86.22
-92.28
-95.90
-96.94
-95.37
-91.03
-83.69
-73.45
-60.96
-47.19
-33.01
-18.75
-4.23
10.77
25.94
40.15
51.72
59.16
61.92
60.84
57.85
55.31
55.09
57.92
63.21
69.45
74.85
78.05
78.47
76.41
72.69
68.29
64.01
60.36
57.58
55.68
54.43
53.39
51.99
49.66
46.09
41.44
36.11
30.61
25.18
19.80
14.33
8.80
3.62
-0.66
-3.57
-5.00
-5.27
-4.93
-4.46
-4.09
-3.79
-3.28
-2.20
-0.24
2.72
6.53
10.71
14.54
17.29
18.45
17.92
16.07
13.57
11.16
9.37
8.45
8.31
8.52
8.61
8.16
7.09
5.74
4.71
4.57
5.45
6.85
7.81
7.35
5.05
1.28
-2.97
-6.53
-8.62
-9.10
-8.30
-6.78
-5.10
-3.82
-3.57
-4.96
-8.33
-13.40
-19.11
-23.96
-26.59
-26.40
-23.76
-19.80
-15.85
-12.99
-11.76
-12.26
-14.27
-17.35
-20.86
-24.05
-26.19
-26.78
-25.86
-23.85
-21.50
-19.47
-18.11
-17.34
-16.69
-15.55
-13.42
-10.14
-5.94
-1.36
3.02
6.87
10.18
13.34
16.79
20.77
25.17
29.54
33.31
36.03
37.53
37.90
37.39
36.24
34.62
32.75
30.91
29.50
28.82
28.96
29.66
30.37
30.48
29.58
27.64
25.01
22.23
19.81
18.11
17.26
17.18
17.54
17.87
17.50
15.82
12.47
7.52
1.55
-4.59
-9.96
-13.88
-16.04
-16.47
-15.43
-13.25
-10.24
-6.78
-3.34
-0.48
1.35
2.11
2.27
2.63
3.90
6.17
8.60
9.77
8.29
3.54
-3.96
-12.73
-20.93
-26.96
-30.01
-30.11
-27.96
-24.71
-21.68
-20.09
-20.76
-23.91
-29.00
-34.98
-40.63
-44.97
-47.50
-48.32
-47.98
-47.28
-47.09
-48.04
-50.23
-53.05
-55.34
-55.96
-54.41
-51.18
-47.72
-45.76
-46.48
-49.99
-55.21
-60.43
-63.88
-64.27
-60.95
-53.82
-43.21
-29.69
-14.08
2.74
19.85
36.59
52.52
67.38
81.08
93.58
104.89
115.04
124.09
132.11
139.08
144.83
148.99
151.09
150.68
147.59
141.92
134.12
124.82
114.61
103.92
93.06
82.36
72.25
63.14
55.16
47.93
40.50
31.74
20.93
8.10
-5.90
-19.85
-32.79
-44.40
-55.10
-65.60
-76.40
-87.36
-97.79
-106.63
-112.76
-115.19
-113.16
-106.36
-95.04
-80.23
-63.76
-47.92
-34.86
-25.96
-21.49
-20.68
-22.10
-24.28
-26.09
-26.88
-26.43
-24.77
-22.13
-18.98
-15.97
-13.92
-13.51
-15.17
-18.83
-23.88
-29.19
-33.45
-35.47
-34.65
-31.28
-26.40
-21.48
-17.88
-16.26
-16.49
-17.80
-19.19
-19.76
-19.03
-16.92
-13.74
-10.06
-6.61
-4.08
-2.88
-2.83
-3.08
-2.43
0.22
5.24
11.97
18.95
24.60
27.90
28.96
28.96
29.70
32.95
39.90
50.91
65.60
83.07
101.94
120.34
135.82
145.68
147.71
141.04
126.69
107.20
85.55
63.93
43.23
23.49
4.98
-10.92
-21.98
-26.28
-23.57
-15.96
-7.24
-1.24
-0.34
-4.89
-13.59
-24.43
-35.21
-43.65
-47.37
-44.29
-33.74
-17.40
0.52
14.46
19.57
13.83
-1.24
-21.35
-41.45
-57.76
-68.86
-75.63
-80.06
-84.00
-88.13
-91.95
-94.23
-93.85
-90.39
-84.40
-76.99
-69.16
-61.38
-53.46
-44.94
-35.71
-26.21
-17.23
-9.30
-2.11
5.48
14.84
26.62
40.18
53.69
65.07
72.88
76.83
77.61
76.26
73.38
68.83
61.77
51.15
36.22
16.91
-6.03
-31.19
-56.97
-81.96
-105.20
-126.02
-143.70
-157.01
-164.24
-163.82
-155.14
-139.18
-118.43
-95.89
-73.92
-53.47
-34.24
-15.54
2.68
19.56
33.89
45.11
54.01
62.34
71.77
82.53
92.94
100.07
101.16
94.97
82.40
65.99
48.83
33.34
20.68
10.84
3.19
-2.86
-7.43
-10.20
-10.61
-8.41
-3.81
2.37
8.83
14.22
17.64
18.73
17.57
14.33
9.14
2.13
-6.25
-14.93
-22.45
-27.43
-29.13
-27.78
-24.48
-20.65
-17.36
-15.02
-13.36
-11.81
-9.99
-8.14
-7.09
-7.81
-10.91
-16.25
-22.91
-29.41
-34.26
-36.25
-34.58
-28.72
-18.32
-3.31
15.75
37.25
58.49
76.15
87.20
89.92
84.54
73.20
59.18
45.70
34.92
27.47
22.64
19.12
15.83
12.46
9.48
7.73
7.88
10.19
14.37
19.88
26.10
32.49
38.51
43.67
47.43
49.40
49.49
48.06
46.00
44.39
44.11
45.28
47.08
48.01
46.54
41.91
34.38
25.14
15.76
7.50
1.11
-3.02
-4.63
-3.43
0.52
6.53
13.09
18.27
20.44
18.92
14.26
7.88
1.52
-3.42
-6.36
-7.70
-8.55
-10.36
-14.28
-20.65
-28.88
-37.70
-45.59
-51.45
-54.84
-56.05
-55.81
-55.01
-54.50
-54.99
-56.96
-60.55
-65.61
-71.75
-78.60
-85.84
-93.19
-100.20
-106.13
-109.95
-110.84
-108.52
-103.50
-96.94
-90.08
-83.69
-77.68
-71.15
-62.50
-50.06
-32.66
-10.31
15.42
41.50
64.22
80.22
87.67
86.94
80.32
71.13
62.60
56.95
55.16
57.26
62.74
70.69
79.83
88.28
93.93
94.94
90.57
81.46
69.45
56.74
45.11
35.42
27.63
21.48
16.92
14.15
13.36
14.29
16.16
18.06
19.42
20.19
20.67
21.01
20.75
18.88
14.23
6.06
-5.54
-19.68
-35.03
-50.14
-63.71
-74.75
-82.54
-86.76
-87.65
-85.97
-82.84
-79.18
-75.35
-70.98
-65.33
-57.74
-48.21
-37.50
-26.86
-17.49
-10.09
-4.69
-0.86
1.75
3.15
2.93
0.61
-4.00
-10.54
-18.21
-26.11
-33.46
-39.81
-44.77
-47.99
-49.07
-47.75
-44.06
-38.44
-31.72
-24.96
-19.20
-15.43
-14.30
-15.92
-19.68
-24.23
-27.82
-28.98
-27.15
-22.84
-17.30
-11.91
-7.52
-4.35
-2.27
-1.23
-1.45
-3.28
-6.78
-11.51
-16.51
-20.63
-22.99
-23.26
-21.64
-18.66
-14.96
-11.03
-7.12
-3.16
1.31
7.05
15.00
25.85
39.64
55.51
71.75
86.26
97.07
102.95
103.65
99.77
92.45
82.91
72.20
61.18
50.58
41.15
33.56
28.24
25.08
23.39
22.10
20.15
16.91
12.37
7.04
1.63
-3.34
-7.69
-11.57
-15.21
-18.75
-22.17
-25.34
-28.16
-30.58
-32.63
-34.32
-35.54
-36.10
-35.70
-34.14
-31.36
-27.51
-22.91
-17.88
-12.67
-7.42
-2.14
3.05
7.91
12.05
15.21
17.46
19.28
21.34
24.08
27.33
30.36
32.17
32.03
29.76
25.74
20.55
14.77
8.76
2.82
-2.60
-6.81
-9.13
-9.25
-7.39
-4.15
-0.04
4.88
10.98
18.63
27.59
36.77
44.42
48.84
49.13
45.56
39.40
32.32
25.67
20.05
15.25
10.66
5.59
-0.37
-7.26
-14.88
-22.86
-30.88
-38.72
-46.26
-53.33
-59.56
-64.33
-66.91
-66.80
-64.07
-59.47
-54.18
-49.25
-45.10
-41.31
-36.94
-31.17
-23.74
-15.14
-6.18
2.57
11.05
19.52
28.07
36.30
43.57
49.52
54.52
59.58
65.65
72.84
80.01
85.26
86.77
83.76
76.85
67.65
57.93
48.89
40.93
33.95
27.90
23.06
20.00
19.20
20.60
23.30
25.81
26.39
23.85
17.98
9.60
0.18
-8.86
-16.65
-23.03
-28.30
-32.79
-36.71
-40.04
-42.83
-45.28
-47.78
-50.68
-54.02
-57.38
-59.95
-60.80
-59.25
-55.13
-48.97
-41.76
-34.60
-28.32
-23.10
-18.54
-13.91
-8.63
-2.65
3.56
9.19
13.52
16.29
17.72
18.36
18.76
19.28
19.99
20.74
21.31
21.50
21.17
20.28
18.79
16.71
14.08
11.03
7.77
4.56
1.65
-0.90
-3.21
-5.63
-8.55
-12.17
-16.28
-20.24
-23.20
-24.35
-23.41
-20.72
-17.15
-13.83
-11.64
-11.01
-11.75
-13.30
-14.92
-15.97
-16.00
-14.75
-12.08
-7.99
-2.61
3.68
10.26
16.36
21.24
24.42
25.87
25.98
25.44
24.91
24.73
24.80
24.60
23.49
21.08
17.55
13.71
10.77
9.93
11.85
16.35
22.43
28.66
33.65
36.50
36.99
35.47
32.59
28.99
25.19
21.49
18.11
15.21
12.84
10.90
9.10
7.06
4.46
1.21
-2.51
-6.33
-9.88
-12.96
-15.64
-18.15
-20.72
-23.44
-26.19
-28.73
-30.84
-32.40
-33.49
-34.29
-34.97
-35.66
-36.40
-37.12
-37.70
-38.01
-37.98
-37.59
-36.94
-36.19
-35.54
-35.11
-34.93
-34.94
-35.02
-35.11
-35.21
-35.43
-35.85
-36.49
-37.39
-38.58
-40.11
-41.99
-43.82
-44.72
-43.35
-38.36
-29.06
-15.86
-0.38
14.96
27.69
36.02
39.15
37.21
31.07
22.09
12.13
3.48
-1.39
-0.47
6.96
19.86
35.44
49.99
60.11
63.79
60.91
52.96
42.18
30.64
19.73
10.30
3.15
-0.64
0.24
6.78
18.85
34.79
51.50
65.39
73.57
75.06
71.24
65.42
61.57
62.81
70.24
82.62
97.08
110.43
120.47
126.68
129.94
131.63
132.65
132.83
131.18
126.62
118.77
108.33
96.93
86.59
79.05
75.18
74.60
75.46
74.61
68.11
52.50
26.30
-8.95
-48.66
-86.47
-116.46
-134.91
-141.19
-137.28
-126.32
-111.30
-94.29
-76.62
-59.38
-43.75
-30.84
-21.29
-14.98
-11.18
-9.12
-8.52
-9.93
-14.42
-23.17
-36.79
-54.92
-75.99
-97.34
-115.81
-128.37
-132.79
-128.16
-115.02
-95.07
-70.65
-44.16
-17.56
7.65
30.37
49.57
64.34
73.94
78.15
77.46
72.95
65.97
57.75
49.07
40.12
30.68
20.30
8.50
-4.94
-19.88
-35.62
-50.74
-63.23
-71.00
-72.67
-68.22
-59.21
-48.19
-37.73
-29.41
-23.45
-19.05
-15.31
-11.96
-9.48
-8.68
-9.87
-12.53
-15.43
-17.38
-17.86
-17.26
-16.47
-16.26
-16.87
-17.94
-18.93
-19.48
-19.73
-20.11
-21.05
-22.69
-24.71
-26.43
-27.16
-26.44
-24.24
-21.04
-17.72
-15.21
-14.19
-14.75
-16.35
-18.05
-18.91
-18.46
-16.85
-14.66
-12.57
-10.93
-9.69
-8.49
-7.05
-5.35
-3.78
-2.87
-3.15
-4.93
-8.25
-12.89
-18.40
-24.13
-29.15
-32.44
-33.04
-30.44
-24.77
-16.97
-8.52
-1.09
4.01
6.18
5.57
2.94
-0.68
-4.29
-7.13
-8.66
-8.57
-6.72
-3.26
1.33
6.28
10.70
13.92
15.70
16.37
16.57
17.01
18.06
19.68
21.44
22.70
22.95
21.85
19.29
15.29
10.07
4.17
-1.39
-5.16
-5.62
-1.84
6.01
16.55
27.61
37.09
43.77
47.53
49.13
49.42
48.87
47.36
44.58
40.59
36.11
32.30
30.21
30.13
31.34
32.29
31.29
27.11
19.52
9.32
-1.96
-12.58
-21.15
-26.97
-30.14
-31.36
-31.59
-31.68
-32.08
-32.83
-33.66
-34.22
-34.35
-34.17
-33.99
-34.13
-34.77
-35.79
-36.80
-37.26
-36.71
-34.91
-31.96
-28.23
-24.26
-20.50
-17.20
-14.47
-12.29
-10.67
-9.65
-9.18
-9.04
-8.84
-8.06
-6.28
-3.39
0.36
4.47
8.32
11.44
13.56
14.65
14.83
14.33
13.44
12.44
11.54
10.84
10.27
9.62
8.66
7.26
5.43
3.30
1.13
-0.89
-2.64
-4.14
-5.44
-6.62
-7.63
-8.38
-8.85
-9.10
-9.35
-9.85
-10.77
-12.09
-13.56
-14.77
-15.27
-14.77
-13.21
-10.78
-7.83
-4.76
-1.93
0.36
1.98
2.90
3.22
3.15
3.01
3.09
3.61
4.67
6.18
7.91
9.58
10.93
11.80
12.19
12.19
11.99
11.75
11.63
11.71
12.00
12.42
12.83
13.08
13.06
12.73
12.11
11.24
10.16
8.86
7.29
5.45
3.44
1.45
-0.28
-1.59
-2.43
-2.96
-3.37
-3.85
-4.48
-5.29
-6.28
-7.47
-8.91
-10.54
-12.21
-13.65
-14.54
-14.57
-13.56
-11.52
-8.66
-5.31
-1.86
1.34
4.05
6.15
7.71
8.83
9.65
10.25
10.67
10.94
11.09
11.18
11.26
11.38
11.59
11.91
12.32
12.78
13.21
13.52
13.63
13.52
13.22
12.80
12.33
11.85
11.37
10.85
10.23
9.48
8.60
7.62
6.64
5.73
4.93
4.24
3.57
2.83
1.93
0.87
-0.30
-1.50
-2.70
-3.98
-5.48
-7.29
-9.40
-11.61
-13.59
-15.02
-15.67
-15.50
-14.63
-13.30
-11.73
-10.09
-8.49
-6.97
-5.53
-4.08
-2.50
-0.66
1.50
3.92
6.37
8.55
10.19
11.15
11.53
11.57
11.60
11.80
12.22
12.72
13.12
13.27
13.14
12.80
12.37
11.93
11.50
11.07
10.65
10.23
9.82
9.42
8.99
8.52
7.97
7.37
6.75
6.11
5.40
4.56
3.50
2.22
0.78
-0.70
-2.08
-3.27
-4.25
-5.15
-6.09
-7.23
-8.63
-10.26
-11.99
-13.62
-14.93
-15.74
-15.92
-15.42
-14.34
-12.84
-11.15
-9.47
-7.88
-6.38
-4.88
-3.33
-1.78
-0.34
0.85
1.71
2.23
2.49
2.60
2.71
3.00
3.64
4.78
6.37
8.18
9.80
10.80
10.95
10.36
9.37
8.42
7.82
7.63
7.68
7.75
7.72
7.61
7.55
7.62
7.80
7.99
8.07
7.98
7.76
7.51
7.30
7.12
6.86
6.37
5.53
4.34
2.87
1.30
-0.20
-1.51
-2.57
-3.46
-4.31
-5.25
-6.39
-7.70
-9.02
-10.12
-10.75
-10.75
-10.08
-8.85
-7.27
-5.57
-3.94
-2.46
-1.13
0.11
1.30
2.47
3.59
4.59
5.40
5.99
6.35
6.54
6.56
6.41
5.99
5.21
4.02
2.54
1.05
-0.04
-0.42
0.08
1.41
3.31
5.44
7.49
9.20
10.43
11.12
11.28
10.97
10.34
9.48
8.53
7.57
6.67
5.90
5.29
4.83
4.44
3.98
3.31
2.35
1.15
-0.21
-1.61
-3.00
-4.38
-5.79
-7.27
-8.83
-10.43
-12.04
-13.58
-14.97
-16.07
-16.76
-16.91
-16.44
-15.35
-13.70
-11.64
-9.38
-7.17
-5.27
-3.82
-2.77
-1.94
-1.04
0.15
1.64
3.28
4.76
5.85
6.48
6.74
6.83
6.87
6.91
6.91
6.82
6.68
6.54
6.46
6.37
6.17
5.79
5.23
4.61
4.10
3.83
3.75
3.69
3.45
2.92
2.15
1.34
0.65
0.13
-0.31
-0.91
-1.84
-3.10
-4.50
-5.68
-6.31
-6.23
-5.52
-4.48
-3.51
-2.93
-2.94
-3.55
-4.65
-6.08
-7.64
-9.10
-10.22
-10.82
-10.77
-10.11
-8.97
-7.55
-6.01
-4.44
-2.84
-1.23
0.34
1.77
2.95
3.81
4.41
4.88
5.37
5.92
6.53
7.08
7.43
7.50
7.28
6.81
6.20
5.51
4.83
4.21
3.70
3.33
3.09
2.96
2.92
2.95
3.07
3.28
3.57
3.83
3.93
3.75
3.22
2.42
1.54
0.81
0.44
0.53
1.03
1.79
2.57
3.12
3.24
2.78
1.71
0.07
-1.99
-4.29
-6.62
-8.76
-10.53
-11.77
-12.43
-12.51
-12.11
-11.39
-10.50
-9.53
-8.55
-7.53
-6.47
-5.35
-4.12
-2.78
-1.30
0.29
1.87
3.27
4.27
4.76
4.75
4.43
4.02
3.76
3.76
4.05
4.57
5.24
5.95
6.58
7.00
7.07
6.77
6.14
5.38
4.77
4.48
4.56
4.87
5.18
5.34
5.31
5.19
5.11
5.14
5.24
5.27
5.07
4.54
3.72
2.75
1.79
0.91
0.06
-0.88
-2.04
-3.49
-5.16
-6.89
-8.45
-9.66
-10.43
-10.72
-10.58
-10.00
-9.02
-7.69
-6.15
-4.59
-3.19
-2.06
-1.19
-0.49
0.10
0.63
1.00
1.10
0.90
0.47
0.01
-0.29
-0.32
-0.14
0.09
0.21
0.12
-0.13
-0.40
-0.64
-0.83
-1.08
-1.44
-1.84
-2.12
-2.06
-1.58
-0.75
0.15
0.86
1.17
1.06
0.64
0.09
-0.48
-1.04
-1.60
-2.17
-2.72
-3.20
-3.57
-3.85
-4.12
-4.51
-5.15
-6.12
-7.40
-8.92
-10.49
-11.88
-12.80
-13.04
-12.52
-11.32
-9.67
-7.85
-6.08
-4.45
-2.96
-1.53
-0.14
1.20
2.43
3.50
4.42
5.21
5.85
6.27
6.41
6.26
5.93
5.62
5.48
5.60
5.90
6.26
6.58
6.82
7.03
7.26
7.50
7.66
7.59
7.19
6.49
5.67
4.98
4.58
4.51
4.62
4.64
4.31
3.49
2.27
0.88
-0.39
-1.36
-1.97
-2.37
-2.75
-3.27
-4.03
-5.01
-6.14
-7.34
-8.56
-9.81
-11.03
-12.11
-12.88
-13.16
-12.81
-11.86
-10.48
-8.92
-7.43
-6.15
-5.06
-4.05
-2.98
-1.72
-0.28
1.22
2.64
3.82
4.69
5.29
5.70
6.05
6.42
6.82
7.22
7.58
7.86
8.07
8.22
8.30
8.33
8.30
8.26
8.22
8.19
8.12
7.94
7.58
7.03
6.34
5.62
4.99
4.49
4.10
3.71
3.22
2.57
1.77
0.89
0.01
-0.82
-1.64
-2.51
-3.48
-4.57
-5.75
-6.98
-8.23
-9.48
-10.68
-11.73
-12.48
-12.80
-12.67
-12.16
-11.41
-10.57
-9.70
-8.78
-7.74
-6.54
-5.19
-3.78
-2.45
-1.25
-0.20
0.69
1.47
2.16
2.77
3.34
3.94
4.62
5.41
6.27
7.07
7.67
7.96
7.92
7.63
7.20
6.76
6.35
5.99
5.66
5.37
5.18
5.17
5.37
5.75
6.24
6.71
7.00
7.00
6.62
5.81
4.61
3.13
1.55
0.07
-1.15
-2.08
-2.77
-3.35
-4.01
-4.89
-6.08
-7.59
-9.35
-11.20
-12.92
-14.23
-14.91
-14.89
-14.23
-13.13
-11.82
-10.46
-9.12
-7.82
-6.53
-5.25
-4.02
-2.85
-1.76
-0.75
0.20
1.10
1.98
2.84
3.69
4.50
5.25
5.87
6.33
6.66
6.92
7.20
7.56
8.02
8.50
8.91
9.17
9.26
9.21
9.10
8.99
8.87
8.64
8.17
7.39
6.29
5.00
3.76
2.72
2.00
1.53
1.14
0.63
-0.16
-1.25
-2.53
-3.81
-4.89
-5.70
-6.23
-6.64
-7.11
-7.76
-8.62
-9.61
-10.55
-11.29
-11.71
-11.82
-11.62
-11.20
-10.57
-9.74
-8.66
-7.33
-5.79
-4.13
-2.47
-0.91
0.50
1.76
2.91
3.97
4.90
5.66
6.21
6.59
6.83
7.00
7.13
7.19
7.21
7.20
7.25
7.36
7.50
7.60
7.58
7.41
7.16
6.93
6.81
6.75
6.67
6.44
6.03
5.47
4.86
4.25
3.68
3.11
2.52
1.92
1.31
0.72
0.13
-0.46
-1.11
-1.83
-2.69
-3.71
-4.92
-6.33
-7.90
-9.53
-11.09
-12.43
-13.46
-14.10
-14.37
-14.31
-13.97
-13.42
-12.71
-11.88
-10.95
-9.96
-8.91
-7.85
-6.79
-5.73
-4.69
-3.65
-2.61
-1.55
-0.50
0.54
1.51
2.36
3.08
3.70
4.32
5.05
5.92
6.87
7.75
8.38
8.62
8.47
8.02
7.43
6.83
6.30
5.91
5.64
5.51
5.48
5.53
5.62
5.70
5.71
5.61
5.34
4.87
4.21
3.47
2.76
2.23
1.93
1.81
1.72
1.48
0.96
0.13
-0.93
-2.09
-3.24
-4.27
-5.14
-5.84
-6.39
-6.82
-7.17
-7.47
-7.71
-7.80
-7.67
-7.24
-6.56
-5.72
-4.88
-4.15
-3.56
-3.06
-2.53
-1.90
-1.17
-0.42
0.20
0.57
0.60
0.32
-0.12
-0.52
-0.65
-0.31
0.55
1.91
3.59
5.36
7.00
8.30
9.17
9.59
9.63
9.36
8.87
8.22
7.45
6.56
5.55
4.44
3.26
2.06
0.94
-0.03
-0.84
-1.52
-2.12
-2.71
-3.30
-3.85
-4.30
-4.63
-4.91
-5.23
-5.74
-6.49
-7.44
-8.43
-9.26
-9.74
-9.76
-9.33
-8.60
-7.70
-6.78
-5.89
-4.99
-3.99
-2.79
-1.34
0.25
1.83
3.22
4.26
4.94
5.34
5.62
5.94
6.37
6.89
7.39
7.74
7.81
7.61
7.19
6.70
6.28
6.01
5.93
5.96
6.03
5.96
5.66
5.03
4.08
2.94
1.84
0.98
0.55
0.54
0.81
1.11
1.17
0.85
0.15
-0.78
-1.79
-2.72
-3.55
-4.32
-5.13
-6.04
-7.07
-8.16
-9.27
-10.34
-11.29
-12.02
-12.39
-12.29
-11.64
-10.52
-9.13
-7.74
-6.58
-5.76
-5.24
-4.85
-4.38
-3.71
-2.77
-1.62
-0.38
0.86
2.00
3.01
3.89
4.69
5.44
6.16
6.85
7.46
7.93
8.19
8.19
7.98
7.62
7.20
6.83
6.53
6.30
6.11
5.92
5.72
5.48
5.23
4.98
4.78
4.66
4.62
4.65
4.67
4.56
4.21
3.55
2.56
1.34
-0.01
-1.29
-2.38
-3.23
-3.88
-4.46
-5.08
-5.80
-6.57
-7.23
-7.61
-7.61
-7.20
-6.40
-5.23
-3.72
-1.84
0.29
2.41
4.15
5.13
5.12
4.18
2.62
0.89
-0.57
-1.52
-1.91
-1.85
-1.49
-0.95
-0.25
0.60
1.59
2.62
3.50
4.05
4.19
4.01
3.73
3.65
3.99
4.75
5.76
6.71
7.32
7.42
7.06
6.43
5.72
5.09
4.55
4.02
3.40
2.67
1.89
1.15
0.54
0.02
-0.51
-1.21
-2.20
-3.47
-4.92
-6.39
-7.80
-9.11
-10.36
-11.51
-12.44
-12.91
-12.70
-11.81
-10.44
-9.02
-7.94
-7.36
-7.15
-6.94
-6.33
-5.12
-3.39
-1.47
0.21
1.40
2.00
2.18
2.18
2.24
2.45
2.79
3.14
3.40
3.51
3.48
3.41
3.37
3.40
3.46
3.51
3.50
3.45
3.39
3.32
3.19
2.91
2.33
1.45
0.37
-0.67
-1.39
-1.64
-1.44
-0.99
-0.56
-0.37
-0.50
-0.92
-1.52
-2.20
-2.92
-3.67
-4.50
-5.43
-6.46
-7.49
-8.40
-9.03
-9.27
-9.12
-8.64
-7.98
-7.22
-6.40
-5.45
-4.29
-2.88
-1.32
0.22
1.55
2.59
3.39
4.07
4.77
5.53
6.26
6.85
7.16
7.17
6.96
6.68
6.47
6.39
6.41
6.40
6.23
5.85
5.31
4.71
4.18
3.78
3.45
3.07
2.55
1.88
1.13
0.42
-0.20
-0.75
-1.30
-1.96
-2.73
-3.56
-4.34
-5.05
-5.68
-6.28
-6.88
-7.46
-8.01
-8.54
-9.19
-10.08
-11.33
-12.89
-14.50
-15.74
-16.18
-15.53
-13.75
-11.14
-8.17
-5.35
-3.03
-1.32
-0.09
0.91
1.92
3.09
4.39
5.72
6.92
7.84
8.40
8.62
8.57
8.40
8.26
8.29
8.54
8.93
9.30
9.46
9.23
8.52
7.37
5.93
4.39
2.97
1.89
1.24
1.00
1.04
1.20
1.32
1.35
1.26
1.03
0.65
0.05
-0.80
-1.86
-3.01
-4.10
-5.00
-5.72
-6.39
-7.18
-8.25
-9.61
-11.13
-12.62
-13.85
-14.72
-15.19
-15.30
-15.14
-14.78
-14.24
-13.45
-12.34
-10.87
-9.10
-7.16
-5.29
-3.69
-2.49
-1.65
-1.05
-0.48
0.20
1.10
2.24
3.59
5.09
6.62
8.04
9.18
9.91
10.19
10.05
9.56
8.79
7.77
6.54
5.19
3.87
2.85
2.45
2.91
4.34
6.65
9.57
12.72
15.70
18.17
19.89
20.77
20.82
20.13
18.82
17.01
14.80
12.32
9.66
6.97
4.38
2.05
0.10
-1.43
-2.68
-3.81
-5.04
-6.48
-8.06
-9.56
-10.71
-11.33
-11.41
-11.10
-10.62
-10.13
-9.69
-9.22
-8.60
-7.71
-6.50
-5.01
-3.36
-1.71
-0.19
1.11
2.17
3.03
3.74
4.36
4.89
5.33
5.64
5.83
5.95
6.06
6.22
6.42
6.59
6.65
6.51
6.13
5.53
4.80
4.01
3.24
2.59
2.11
1.81
1.69
1.65
1.57
1.31
0.76
-0.10
-1.21
-2.46
-3.74
-4.96
-6.11
-7.20
-8.27
-9.39
-10.61
-11.92
-13.21
-14.28
-14.85
-14.69
-13.71
-12.07
-10.08
-8.16
-6.61
-5.48
-4.57
-3.54
-2.18
-0.50
1.24
2.70
3.64
4.08
4.23
4.40
4.77
5.38
6.10
6.74
7.23
7.61
7.97
8.41
8.90
9.28
9.39
9.11
8.47
7.62
6.75
6.00
5.45
5.02
4.62
4.15
3.53
2.76
1.89
1.01
0.27
-0.21
-0.46
-0.58
-0.86
-1.51
-2.66
-4.16
-5.71
-7.01
-7.87
-8.39
-8.82
-9.47
-10.53
-11.97
-13.61
-15.19
-16.43
-17.14
-17.23
-16.70
-15.61
-14.07
-12.26
-10.34
-8.48
-6.77
-5.25
-3.90
-2.65
-1.42
-0.20
1.02
2.22
3.38
4.53
5.71
6.94
8.19
9.36
10.35
11.06
11.44
11.50
11.35
11.09
10.83
10.64
10.51
10.38
10.19
9.87
9.45
8.99
8.58
8.25
7.94
7.53
6.93
6.13
5.21
4.28
3.42
2.61
1.74
0.76
-0.32
-1.40
-2.37
-3.19
-3.95
-4.87
-6.14
-7.80
-9.79
-11.89
-13.86
-15.48
-16.58
-17.01
-16.69
-15.58
-13.82
-11.67
-9.47
-7.53
-5.98
-4.75
-3.59
-2.24
-0.56
1.40
3.41
5.17
6.48
7.27
7.61
7.67
7.62
7.59
7.65
7.83
8.13
8.48
8.81
8.99
8.95
8.66
8.19
7.64
7.11
6.62
6.11
5.47
4.61
3.53
2.36
1.28
0.45
-0.04
-0.21
-0.17
-0.06
0.00
-0.06
-0.24
-0.53
-0.91
-1.39
-1.99
-2.76
-3.74
-4.93
-6.32
-7.91
-9.67
-11.49
-13.20
-14.56
-15.29
-15.19
-14.18
-12.35
-9.94
-7.24
-4.57
-2.14
-0.10
1.53
2.81
3.89
4.91
6.00
7.21
8.47
9.64
10.58
11.19
11.44
11.43
11.31
11.27
11.41
11.71
12.06
12.26
12.19
11.77
11.03
10.10
9.06
8.01
7.01
6.07
5.22
4.41
3.62
2.73
1.65
0.31
-1.25
-2.94
-4.55
-5.91
-6.88
-7.51
-7.96
-8.48
-9.33
-10.59
-12.19
-13.94
-15.61
-17.07
-18.33
-19.50
-20.65
-21.66
-22.25
-22.07
-20.88
-18.70
-15.80
-12.66
-9.74
-7.35
-5.60
-4.40
-3.56
-2.87
-2.12
-1.16
0.15
1.91
4.15
6.80
9.70
12.58
15.17
17.22
18.59
19.27
19.34
18.97
18.38
17.71
17.07
16.48
15.91
15.30
14.61
13.80
12.88
11.83
10.68
9.45
8.17
6.98
5.96
5.18
4.61
4.13
3.51
2.58
1.20
-0.57
-2.57
-4.55
-6.31
-7.76
-8.95
-10.01
-11.08
-12.27
-13.58
-14.95
-16.22
-17.19
-17.69
-17.56
-16.74
-15.24
-13.20
-10.82
-8.39
-6.18
-4.36
-3.00
-2.00
-1.16
-0.27
0.81
2.08
3.45
4.77
6.01
7.16
8.28
9.36
10.33
11.08
11.50
11.60
11.47
11.25
11.04
10.86
10.64
10.29
9.80
9.21
8.59
8.02
7.51
6.99
6.41
5.75
5.05
4.41
3.90
3.48
3.03
2.40
1.53
0.46
-0.67
-1.71
-2.64
-3.52
-4.53
-5.77
-7.28
-9.00
-10.83
-12.67
-14.40
-15.87
-16.89
-17.24
-16.79
-15.57
-13.78
-11.70
-9.59
-7.62
-5.79
-4.03
-2.30
-0.59
1.03
2.47
3.68
4.68
5.50
6.18
6.74
7.17
7.49
7.73
7.95
8.25
8.67
9.18
9.70
10.12
10.37
10.43
10.36
10.21
10.03
9.78
9.41
8.84
8.09
7.24
6.42
5.76
5.22
4.69
3.99
3.04
1.84
0.56
-0.66
-1.72
-2.65
-3.59
-4.67
-5.93
-7.30
-8.69
-10.01
-11.27
-12.54
-13.84
-15.11
-16.17
-16.77
-16.68
-15.82
-14.28
-12.27
-10.06
-7.85
-5.76
-3.78
-1.88
0.01
1.85
3.58
5.11
6.33
7.21
7.75
8.02
8.10
8.11
8.18
8.39
8.79
9.33
9.91
10.32
10.40
10.07
9.38
8.54
7.79
7.29
7.05
6.96
6.84
6.57
6.14
5.63
5.11
4.59
4.00
3.22
2.24
1.10
-0.10
-1.28
-2.43
-3.58
-4.76
-5.96
-7.15
-8.32
-9.57
-11.00
-12.69
-14.56
-16.35
-17.72
-18.32
-17.98
-16.72
-14.75
-12.36
-9.83
-7.39
-5.17
-3.19
-1.44
0.17
1.66
3.02
4.21
5.16
5.86
6.37
6.78
7.22
7.74
8.34
8.96
9.54
9.99
10.25
10.31
10.21
10.04
9.86
9.72
9.53
9.15
8.42
7.29
5.84
4.31
2.93
1.86
1.14
0.64
0.21
-0.29
-0.95
-1.77
-2.72
-3.75
-4.81
-5.83
-6.78
-7.66
-8.52
-9.42
-10.42
-11.57
-12.85
-14.19
-15.48
-16.53
-17.16
-17.22
-16.62
-15.40
-13.70
-11.73
-9.69
-7.78
-6.08
-4.61
-3.29
-1.99
-0.55
1.08
2.88
4.67
6.21
7.32
7.93
8.17
8.30
8.61
9.22
10.08
10.98
11.71
12.13
12.22
12.07
11.78
11.40
10.92
10.32
9.63
8.92
8.29
7.78
7.33
6.79
6.00
4.89
3.49
1.92
0.38
-1.00
-2.13
-2.98
-3.61
-4.09
-4.50
-4.87
-5.29
-5.82
-6.57
-7.67
-9.16
-11.00
-12.95
-14.67
-15.82
-16.19
-15.70
-14.50
-12.79
-10.79
-8.69
-6.60
-4.60
-2.74
-1.04
0.52
1.98
3.37
4.69
5.89
6.91
7.69
8.23
8.58
8.84
9.10
9.40
9.73
10.02
10.20
10.20
9.99
9.56
8.98
8.36
7.83
7.48
7.32
7.30
7.24
7.00
6.51
5.78
4.94
4.15
3.53
3.13
2.89
2.73
2.55
2.31
2.00
1.63
1.21
0.67
-0.04
-0.98
-2.15
-3.50
-4.95
-6.47
-8.10
-9.82
-11.59
-13.21
-14.37
-14.80
-14.36
-13.08
-11.21
-9.02
-6.79
-4.68
-2.79
-1.13
0.30
1.54
2.64
3.63
4.48
5.13
5.52
5.66
5.65
5.69
5.92
6.40
7.02
7.61
7.98
8.06
7.87
7.56
7.24
7.01
6.85
6.67
6.41
6.08
5.73
5.42
5.15
4.87
4.50
4.00
3.39
2.76
2.18
1.65
1.10
0.43
-0.44
-1.45
-2.50
-3.45
-4.25
-4.97
-5.72
-6.60
-7.66
-8.86
-10.16
-11.48
-12.77
-13.95
-14.89
-15.39
-15.26
-14.41
-12.90
-10.95
-8.86
-6.88
-5.11
-3.55
-2.11
-0.73
0.59
1.80
2.82
3.56
4.00
4.16
4.12
3.99
3.91
4.03
4.42
5.10
5.93
6.77
7.48
7.99
8.29
8.36
8.16
7.64
6.80
5.69
4.48
3.36
2.49
1.88
1.41
0.90
0.18
-0.80
-2.00
-3.30
-4.57
-5.71
-6.63
-7.30
-7.73
-8.07
-8.48
-9.19
-10.34
-11.92
-13.78
-15.59
-17.03
-17.80
-17.79
-17.04
-15.73
-14.08
-12.28
-10.38
-8.24
-5.58
-2.12
2.29
7.52
13.09
18.31
22.46
25.01
25.84
25.18
23.53
21.43
19.34
17.46
15.86
14.48
13.25
12.13
11.09
10.11
9.16
8.20
7.20
6.18
5.18
4.27
3.53
3.00
2.67
2.50
2.42
2.28
2.01
1.53
0.82
-0.11
-1.20
-2.43
-3.73
-5.05
-6.34
-7.56
-8.70
-9.82
-10.99
-12.33
-13.91
-15.77
-17.77
-19.62
-20.92
-21.27
-20.41
-18.37
-15.45
-12.11
-8.88
-6.12
-3.95
-2.26
-0.84
0.55
2.04
3.60
5.10
6.33
7.19
7.62
7.72
7.61
7.40
7.18
6.98
6.83
6.78
6.84
7.02
7.28
7.55
7.74
7.77
7.55
7.03
6.23
5.30
4.45
3.90
3.71
3.74
3.67
3.19
2.13
0.64
-0.94
-2.26
-3.13
-3.60
-3.91
-4.33
-5.09
-6.28
-7.85
-9.66
-11.47
-13.00
-13.96
-14.17
-13.57
-12.30
-10.60
-8.73
-6.84
-5.01
-3.20
-1.41
0.33
1.96
3.36
4.46
5.24
5.75
6.10
6.44
6.90
7.54
8.34
9.17
9.85
10.24
10.29
10.04
9.57
9.00
8.38
7.71
6.96
6.10
5.12
4.13
3.25
2.59
2.19
1.95
1.67
1.14
0.31
-0.70
-1.61
-2.14
-2.17
-1.77
-1.22
-0.84
-0.88
-1.40
-2.37
-3.66
-5.18
-6.84
-8.55
-10.20
-11.60
-12.53
-12.79
-12.28
-11.03
-9.22
-7.13
-5.06
-3.24
-1.77
-0.60
0.36
1.27
2.21
3.20
4.12
4.84
5.23
5.30
5.18
5.13
5.39
6.06
7.08
8.17
9.07
9.56
9.65
9.46
9.16
8.89
8.66
8.40
7.99
7.38
6.55
5.49
4.26
2.86
1.30
-0.39
-2.16
-3.94
-5.62
-7.14
-8.46
-9.59
-10.56
-11.33
-11.80
-11.80
-11.20
-9.93
-8.06
-5.80
-3.44
-1.24
0.62
2.07
3.17
3.99
4.68
5.33
6.00
6.71
7.40
7.99
8.42
8.63
8.58
8.24
7.63
6.77
5.78
4.80
3.95
3.29
2.68
1.94
0.88
-0.60
-2.49
-4.70
-7.24
-10.15
-13.50
-17.16
-20.80
-23.86
-25.76
-26.21
-25.22
-23.13
-20.42
-17.48
-14.61
-11.94
-9.59
-7.66
-6.23
-5.27
-4.58
-3.85
-2.75
-1.11
1.00
3.32
5.48
7.24
8.55
9.54
10.41
11.28
12.13
12.85
13.34
13.62
13.78
13.97
14.22
14.42
14.36
13.94
13.17
12.26
11.46
10.92
10.62
10.39
10.03
9.39
8.40
7.12
5.64
4.11
2.71
1.59
0.85
0.49
0.33
0.11
-0.37
-1.20
-2.28
-3.41
-4.42
-5.25
-5.92
-6.57
-7.26
-7.99
-8.72
-9.39
-10.01
-10.61
-11.20
-11.69
-11.90
-11.64
-10.75
-9.25
-7.35
-5.32
-3.47
-1.98
-0.89
-0.14
0.40
0.84
1.24
1.64
2.11
2.68
3.40
4.24
5.12
5.95
6.62
7.11
7.38
7.48
7.42
7.24
6.99
6.73
6.50
6.31
6.13
5.85
5.44
4.89
4.28
3.67
3.06
2.37
1.51
0.45
-0.68
-1.70
-2.41
-2.80
-2.98
-3.17
-3.58
-4.33
-5.39
-6.65
-7.97
-9.24
-10.34
-11.16
-11.57
-11.47
-10.85
-9.79
-8.44
-7.00
-5.58
-4.26
-3.00
-1.78
-0.57
0.62
1.73
2.73
3.56
4.19
4.63
4.88
5.00
5.06
5.15
5.37
5.74
6.26
6.89
7.53
8.09
8.47
8.62
8.48
8.08
7.49
6.78
6.03
5.34
4.76
4.32
4.01
3.74
3.39
2.86
2.16
1.36
0.63
0.06
-0.32
-0.64
-1.11
-1.91
-3.11
-4.63
-6.33
-8.08
-9.79
-11.39
-12.81
-13.91
-14.49
-14.40
-13.58
-12.13
-10.32
-8.45
-6.78
-5.47
-4.52
-3.81
-3.20
-2.54
-1.74
-0.79
0.26
1.30
2.22
2.92
3.40
3.72
4.01
4.41
4.98
5.69
6.44
7.08
7.49
7.65
7.62
7.50
7.34
7.13
6.84
6.43
5.92
5.41
4.96
4.63
4.34
4.00
3.49
2.77
1.82
0.72
-0.45
-1.61
-2.74
-3.81
-4.80
-5.71
-6.59
-7.53
-8.61
-9.91
-11.36
-12.83
-14.07
-14.82
-14.90
-14.27
-13.02
-11.34
-9.43
-7.46
-5.51
-3.61
-1.75
0.03
1.69
3.12
4.24
5.00
5.43
5.64
5.76
5.92
6.17
6.50
6.82
7.01
7.02
6.82
6.44
5.92
5.32
4.76
4.37
4.29
4.65
5.47
6.62
7.85
8.85
9.36
9.24
8.48
7.17
5.52
3.74
2.07
0.67
-0.38
-1.10
-1.62
-2.15
-2.87
-3.88
-5.17
-6.66
-8.15
-9.50
-10.61
-11.44
-12.01
-12.40
-12.60
-12.64
-12.43
-11.91
-11.03
-9.79
-8.29
-6.68
-5.14
-3.80
-2.73
-1.96
-1.39
-0.91
-0.39
0.23
1.00
1.86
2.74
3.56
4.24
4.78
5.19
5.55
5.91
6.29
6.64
6.86
6.86
6.61
6.14
5.55
4.96
4.43
4.02
3.73
3.55
3.45
3.39
3.31
3.11
2.76
2.22
1.51
0.65
-0.37
-1.58
-2.97
-4.50
-6.05
-7.47
-8.64
-9.50
-10.03
-10.26
-10.22
-9.90
-9.28
-8.37
-7.18
-5.76
-4.17
-2.52
-0.92
0.49
1.64
2.47
3.04
3.42
3.70
3.96
4.24
4.53
4.84
5.18
5.52
5.78
5.85
5.65
5.25
4.85
4.70
4.98
5.70
6.66
7.57
8.16
8.30
8.03
7.43
6.62
5.66
4.61
3.56
2.59
1.77
1.05
0.36
-0.42
-1.35
-2.42
-3.59
-4.79
-6.00
-7.19
-8.37
-9.50
-10.55
-11.48
-12.24
-12.79
-13.06
-13.00
-12.56
-11.72
-10.51
-9.05
-7.49
-5.96
-4.60
-3.47
-2.55
-1.81
-1.16
-0.52
0.16
0.92
1.78
2.76
3.82
4.94
5.99
6.86
7.42
7.63
7.53
7.27
7.01
6.89
6.94
7.11
7.28
7.35
7.26
7.03
6.70
6.31
5.87
5.37
4.77
4.05
3.21
2.26
1.28
0.33
-0.55
-1.38
-2.19
-3.02
-3.81
-4.46
-4.81
-4.80
-4.48
-4.02
-3.66
-3.59
-3.86
-4.33
-4.82
-5.12
-5.11
-4.83
-4.38
-3.87
-3.35
-2.82
-2.21
-1.50
-0.66
0.26
1.23
2.21
3.18
4.08
4.81
5.28
5.44
5.31
5.04
4.76
4.58
4.51
4.54
4.62
4.77
5.04
5.42
5.87
6.25
6.41
6.25
5.73
4.91
3.85
2.65
1.42
0.28
-0.63
-1.21
-1.43
-1.34
-1.05
-0.71
-0.42
-0.27
-0.33
-0.67
-1.29
-2.18
-3.31
-4.62
-6.02
-7.44
-8.82
-10.08
-11.16
-12.04
-12.71
-13.17
-13.35
-13.17
-12.51
-11.36
-9.82
-8.12
-6.50
-5.10
-3.92
-2.87
-1.83
-0.74
0.34
1.32
2.16
2.87
3.52
4.21
4.97
5.75
6.46
6.99
7.31
7.44
7.46
7.50
7.61
7.76
7.86
7.83
7.64
7.33
7.01
6.80
6.75
6.78
6.77
6.56
6.07
5.30
4.35
3.34
2.37
1.46
0.60
-0.24
-1.05
-1.78
-2.39
-2.87
-3.30
-3.83
-4.59
-5.63
-6.86
-8.09
-9.14
-9.88
-10.28
-10.37
-10.20
-9.78
-9.10
-8.14
-6.94
-5.60
-4.22
-2.91
-1.73
-0.66
0.33
1.30
2.31
3.38
4.45
5.44
6.26
6.84
7.21
7.45
7.66
7.93
8.26
8.56
8.74
8.74
8.56
8.27
7.92
7.52
7.05
6.49
5.84
5.15
4.49
3.93
3.47
3.13
2.86
2.60
2.29
1.82
1.11
0.13
-1.08
-2.42
-3.78
-5.07
-6.25
-7.29
-8.16
-8.84
-9.32
-9.65
-9.93
-10.26
-10.66
-11.09
-11.38
-11.37
-10.96
-10.14
-8.97
-7.59
-6.10
-4.56
-2.99
-1.35
0.39
2.19
3.93
5.42
6.43
6.89
6.86
6.56
6.30
6.27
6.54
7.01
7.50
7.84
7.97
7.92
7.77
7.59
7.42
7.22
6.96
6.56
6.01
5.33
4.58
3.85
3.23
2.77
2.45
2.20
1.91
1.49
0.92
0.27
-0.37
-0.93
-1.40
-1.84
-2.34
-2.93
-3.58
-4.22
-4.81
-5.39
-6.09
-7.06
-8.38
-9.97
-11.61
-12.99
-13.84
-14.02
-13.56
-12.58
-11.28
-9.79
-8.24
-6.70
-5.22
-3.86
-2.63
-1.50
-0.44
0.56
1.51
2.37
3.15
3.91
4.74
5.70
6.75
7.72
8.44
8.80
8.83
8.68
8.53
8.46
8.44
8.34
8.04
7.50
6.80
6.06
5.39
4.81
4.30
3.81
3.36
2.98
2.69
2.49
2.28
1.94
1.36
0.55
-0.43
-1.40
-2.29
-3.03
-3.72
-4.44
-5.29
-6.30
-7.48
-8.78
-10.13
-11.45
-12.60
-13.41
-13.75
-13.54
-12.79
-11.64
-10.26
-8.81
-7.43
-6.16
-5.03
-4.02
-3.15
-2.35
-1.59
-0.81
0.03
0.86
1.65
2.33
2.94
3.56
4.27
5.09
5.89
6.46
6.68
6.48
6.01
5.48
5.10
4.96
5.04
5.20
5.28
5.11
4.61
3.80
2.81
1.79
0.91
0.27
-0.14
-0.42
-0.77
-1.32
-2.14
-3.21
-4.47
-5.78
-7.01
-8.01
-8.64
-8.83
-8.56
-7.86
-6.87
-5.74
-4.60
-3.56
-2.66
-1.87
-1.11
-0.31
0.56
1.50
2.43
3.25
3.86
4.21
4.33
4.27
4.13
3.97
3.85
3.77
3.77
3.89
4.22
4.71
5.26
5.65
5.68
5.27
4.47
3.51
2.59
1.86
1.29
0.76
0.14
-0.64
-1.50
-2.36
-3.14
-3.84
-4.50
-5.20
-5.94
-6.60
-7.01
-6.97
-6.37
-5.27
-3.86
-2.43
-1.20
-0.28
0.37
0.91
1.57
2.43
3.46
4.47
5.25
5.64
5.67
5.50
5.33
5.31
5.45
5.68
5.93
6.19
6.50
6.95
7.49
8.00
8.26
8.12
7.53
6.58
5.41
4.13
2.78
1.38
-0.04
-1.42
-2.64
-3.60
-4.29
-4.81
-5.31
-6.00
-6.98
-8.28
-9.82
-11.48
-13.10
-14.55
-15.73
-16.54
-16.87
-16.64
-15.79
-14.40
-12.64
-10.69
-8.76
-6.93
-5.23
-3.58
-1.92
-0.21
1.53
3.24
4.82
6.21
7.34
8.22
8.91
9.48
10.00
10.50
10.95
11.30
11.55
11.65
11.59
11.35
10.88
10.17
9.28
8.29
7.31
6.43
5.66
5.01
4.45
3.95
3.45
2.85
2.02
0.87
-0.57
-2.16
-3.67
-4.92
-5.89
-6.72
-7.63
-8.83
-10.36
-12.11
-13.84
-15.29
-16.22
-16.47
-15.98
-14.79
-13.01
-10.82
-8.42
-6.00
-3.68
-1.55
0.37
2.05
3.49
4.71
5.76
6.69
7.52
8.23
8.81
9.23
9.52
9.72
9.89
10.07
10.24
10.40
10.54
10.67
10.76
10.76
10.58
10.16
9.54
8.82
8.15
7.64
7.26
6.86
6.32
5.57
4.64
3.63
2.61
1.56
0.46
-0.75
-2.02
-3.25
-4.36
-5.32
-6.23
-7.27
-8.59
-10.25
-12.18
-14.22
-16.13
-17.68
-18.67
-18.94
-18.45
-17.19
-15.28
-12.87
-10.18
-7.41
-4.77
-2.39
-0.40
1.21
2.49
3.56
4.58
5.62
6.74
7.88
8.97
9.91
10.66
11.22
11.62
11.90
12.08
12.15
12.13
12.02
11.84
11.55
11.11
10.48
9.65
8.73
7.86
7.17
6.71
6.39
6.03
5.45
4.54
3.37
2.08
0.84
-0.26
-1.20
-2.03
-2.80
-3.51
-4.14
-4.73
-5.34
-6.11
-7.16
-8.54
-10.15
-11.82
-13.35
-14.60
-15.47
-15.93
-15.91
-15.36
-14.23
-12.57
-10.52
-8.31
-6.16
-4.19
-2.48
-1.03
0.20
1.22
2.03
2.66
3.16
3.60
4.08
4.69
5.48
6.46
7.59
8.81
9.98
10.98
11.67
11.99
11.98
11.73
11.35
10.89
10.35
9.71
8.98
8.20
7.46
6.82
6.25
5.70
5.09
4.44
3.86
3.45
3.25
3.11
2.81
2.12
1.02
-0.34
-1.66
-2.71
-3.44
-4.01
-4.71
-5.81
-7.44
-9.57
-12.07
-14.72
-17.25
-19.33
-20.58
-20.67
-19.45
-17.04
-13.83
-10.36
-7.17
-4.56
-2.60
-1.15
0.03
1.08
2.03
2.83
3.37
3.63
3.67
3.67
3.79
4.17
4.87
5.84
6.96
8.05
8.92
9.44
9.57
9.38
9.01
8.65
8.41
8.26
8.09
7.71
7.02
6.08
5.03
4.05
3.25
2.64
2.14
1.62
1.03
0.33
-0.44
-1.26
-2.10
-3.00
-3.98
-5.04
-6.14
-7.23
-8.29
-9.29
-10.30
-11.37
-12.52
-13.69
-14.69
-15.27
-15.18
-14.28
