1547289817.00
64.000000
-0.00
-0.00
-0.00
-0.00
-0.00
-0.00
-0.00
-0.00
-0.00
-0.00
0.00
0.01
0.01
-0.00
-0.03
-0.05
-0.05
0.00
0.13
0.36
0.66
1.01
1.37
1.72
2.06
2.40
2.79
3.24
3.80
4.42
5.06
5.66
6.20
6.68
7.15
7.68
8.31
9.14
10.09
11.04
11.88
12.56
13.14
13.76
14.65
15.96
17.91
20.32
22.90
25.38
27.58
29.57
31.68
34.32
37.81
42.54
48.15
54.10
59.83
64.97
69.58
74.14
79.34
85.71
93.76
103.00
112.62
121.73
129.77
136.75
143.30
150.75
157.77
166.64
177.95
191.79
206.97
220.57
228.25
225.36
208.53
176.87
132.76
80.05
23.07
-34.94
-92.44
-149.16
-205.23
-260.37
-313.74
-363.87
-409.83
-450.91
-486.50
-515.74
-537.23
-549.22
-549.96
-538.37
-514.21
-478.67
-433.88
-382.45
-327.02
-269.84
-212.63
-156.66
-102.95
-52.37
-5.90
35.58
71.43
101.35
125.50
144.38
158.69
169.15
176.37
180.75
182.57
182.07
179.51
175.23
169.65
163.18
156.15
148.81
141.30
133.69
126.02
118.33
110.69
103.16
95.80
88.68
81.83
75.25
68.95
62.95
57.25
51.86
46.78
42.03
37.59
33.45
29.61
26.07
22.81
19.83
17.11
14.67
12.48
10.54
8.83
7.35
6.07
4.97
4.05
3.27
2.62
2.09
1.65
1.30
1.01
0.79
0.61
0.47
0.37
0.29
0.23
0.18
0.15
0.14
0.13
0.14
0.15
0.17
0.19
0.22
0.26
0.30
0.34
0.39
0.43
0.48
0.53
0.57
0.63
0.68
0.74
0.80
0.87
0.94
1.03
1.12
1.22
1.34
1.47
1.61
1.77
1.95
2.15
2.38
2.63
2.91
3.20
3.49
3.80
4.12
4.47
4.87
5.33
5.85
6.41
7.01
7.62
8.24
8.88
9.57
10.35
11.20
12.14
13.13
14.15
15.16
16.17
17.18
18.23
19.35
20.53
21.64
22.54
23.01
22.85
21.93
20.23
17.78
14.68
11.05
6.91
2.28
-2.82
-8.30
-13.96
-19.43
-24.32
-28.20
-30.87
-32.43
-33.17
-33.57
-34.03
-34.77
-35.73
-36.65
-37.28
-37.44
-37.26
-37.00
-37.05
-37.62
-38.96
-41.02
-43.70
-46.65
-49.00
-49.78
-47.88
-42.66
-34.17
-23.65
-12.79
-3.47
3.25
7.36
9.81
11.84
14.32
17.57
20.96
23.42
23.81
21.70
17.49
12.31
7.43
3.42
0.31
-2.37
-4.91
-7.17
-8.47
-8.47
-7.74
-7.75
-10.02
-15.08
-21.63
-27.00
-28.43
-24.58
-16.12
-5.33
5.14
13.04
17.56
19.14
19.01
18.31
17.66
17.25
16.91
16.27
14.89
12.37
8.51
3.51
-1.86
-6.62
-9.79
-10.98
-10.42
-8.96
-7.44
-6.31
-5.77
-5.92
-6.71
-8.04
-9.67
-11.07
-11.76
-11.75
-12.09
-14.74
-21.54
-32.93
-47.05
-60.16
-68.23
-68.83
-62.40
-51.56
-39.82
-29.70
-21.95
-15.81
-9.93
-3.20
4.91
14.30
24.59
35.00
44.72
52.57
57.82
60.26
60.44
59.32
57.63
55.82
53.86
51.65
49.11
46.42
43.80
41.53
39.80
38.45
37.31
36.17
34.76
32.97
30.42
26.78
21.60
14.87
7.03
-1.20
-9.17
-16.69
-23.92
-31.01
-37.71
-43.08
-45.61
-44.35
-39.36
-32.24
-25.06
-18.99
-13.64
-7.33
1.29
11.84
21.74
27.85
28.15
23.02
14.93
7.04
1.47
-1.33
-2.24
-1.85
0.27
5.13
12.96
22.13
29.59
32.36
29.74
23.61
16.95
11.94
8.55
5.20
0.44
-5.57
-11.07
-13.94
-13.37
-10.41
-7.61
-7.35
-10.10
-14.22
-17.34
-17.74
-15.24
-11.24
-7.53
-5.30
-4.65
-4.52
-3.48
-0.09
6.17
14.02
20.67
22.97
19.07
9.50
-2.74
-13.61
-19.82
-20.17
-15.61
-8.48
-0.81
6.22
12.43
17.81
21.85
23.65
22.62
18.96
13.94
9.25
6.19
5.25
5.88
6.96
7.37
6.48
4.40
2.16
0.87
1.07
2.28
3.06
1.90
-2.13
-8.97
-17.30
-25.20
-30.40
-31.12
-26.29
-15.76
-0.97
15.58
30.43
40.33
43.30
39.17
29.48
16.79
3.74
-7.26
-14.22
-15.63
-11.21
-2.57
7.21
14.58
17.30
15.10
9.88
4.27
-0.11
-2.81
-4.42
-5.67
-6.59
-6.81
-6.30
-5.79
-6.27
-8.48
-12.66
-18.14
-24.27
-30.53
-36.14
-40.05
-40.55
-36.30
-27.29
-15.24
-2.90
6.99
13.01
15.71
17.03
19.13
23.22
28.84
34.37
37.75
37.90
35.88
34.18
35.25
39.63
44.36
44.14
34.34
14.25
-11.15
-33.37
-44.44
-41.56
-28.17
-11.93
-0.30
3.30
-0.15
-7.21
-14.61
-20.89
-26.55
-31.95
-36.74
-39.84
-40.70
-40.26
-40.09
-41.09
-42.44
-41.60
-36.13
-26.03
-13.93
-3.89
0.55
-1.51
-8.29
-16.44
-22.92
-26.08
-25.73
-22.71
-18.06
-12.49
-6.44
-0.08
6.66
13.87
21.78
30.28
38.60
45.54
49.62
50.32
48.33
45.72
45.41
50.17
61.83
80.41
103.53
126.70
144.53
152.43
148.54
134.27
113.28
89.76
66.73
45.35
25.71
7.93
-6.99
-17.43
-22.00
-20.48
-14.51
-7.02
-1.01
1.73
0.96
-2.07
-5.46
-7.74
-8.56
-8.45
-8.68
-10.16
-12.78
-15.55
-17.06
-16.36
-13.93
-11.53
-11.33
-14.33
-19.76
-25.23
-27.97
-26.64
-21.87
-16.34
-13.39
-15.17
-21.72
-30.69
-38.54
-42.15
-40.19
-33.97
-27.39
-24.93
-30.15
-43.70
-62.20
-78.83
-86.39
-80.23
-61.20
-35.70
-12.89
-0.55
-1.39
-12.24
-26.44
-37.31
-41.73
-40.15
-35.41
-30.14
-24.54
-17.31
-6.70
7.62
23.57
37.91
47.44
50.13
45.30
33.88
17.73
-0.47
-17.81
-31.34
-38.65
-38.87
-32.91
-23.14
-12.67
-4.74
-1.28
-2.65
-7.68
-14.31
-20.41
-24.41
-26.02
-25.47
-23.53
-20.07
-14.55
-7.27
0.17
4.54
2.59
-6.54
-20.37
-33.81
-41.77
-42.44
-38.38
-34.59
-34.93
-39.45
-44.01
-43.61
-36.08
-23.89
-13.26
-10.23
-16.91
-30.51
-45.10
-55.48
-59.73
-59.46
-57.51
-56.02
-55.36
-54.42
-52.32
-49.47
-47.30
-47.32
-49.43
-50.00
-44.13
-28.49
-3.40
27.82
60.45
90.12
114.01
130.44
140.58
144.21
138.60
119.91
86.96
44.08
0.58
-32.47
-46.45
-34.10
5.50
66.32
137.50
208.13
270.42
319.29
351.33
364.63
365.35
362.37
364.30
376.23
399.29
430.57
463.58
490.17
473.41
394.66
265.06
120.86
-3.24
-92.51
-150.04
-186.05
-209.44
-224.88
-228.72
-218.07
-194.89
-166.52
-141.10
-123.26
-113.76
-110.21
-109.43
-105.05
-92.93
-73.77
-52.14
-33.24
-19.67
-11.64
-7.25
-4.08
2.16
14.11
31.46
51.24
69.99
85.89
98.13
107.32
114.38
121.15
128.54
135.81
140.42
138.68
132.77
123.28
111.03
96.93
82.22
67.95
54.57
42.09
30.23
18.87
7.26
-4.95
-17.80
-31.10
-44.40
-57.18
-69.09
-80.08
-90.42
-101.16
-113.12
-126.69
-141.77
-157.70
-173.72
-189.13
-203.60
-217.41
-231.79
-248.28
-268.32
-292.66
-320.61
-349.62
-375.88
-395.25
-404.54
-402.20
-388.43
-365.00
-335.05
-302.47
-270.46
-240.87
-213.85
-188.29
-163.42
-139.38
-117.77
-100.35
-88.34
-81.30
-77.28
-73.87
-69.36
-63.15
-56.05
-49.19
-43.42
-39.03
-35.49
-32.40
-29.09
-24.86
-18.72
-9.66
3.18
20.21
40.67
62.71
83.55
100.49
111.87
117.19
116.99
111.95
102.77
90.47
77.15
65.81
59.35
59.10
63.91
70.59
76.15
79.23
80.46
81.96
85.15
89.85
94.02
95.01
91.11
81.83
68.19
51.36
32.94
14.70
-0.98
-11.55
-15.48
-13.77
-9.96
-9.38
-16.67
-32.98
-54.91
-75.50
-87.08
-84.55
-67.72
-41.61
-14.15
6.62
15.96
13.36
2.11
-13.08
-28.86
-43.91
-58.80
-73.81
-87.25
-94.97
-91.95
-74.96
-44.21
-4.04
38.73
77.79
109.92
136.28
161.36
189.30
220.81
250.58
268.49
264.76
235.73
187.85
135.77
96.06
78.95
83.49
99.00
111.48
111.46
97.51
74.40
48.07
21.17
-6.83
-36.76
-66.32
-89.69
-100.55
-96.85
-82.84
-67.62
-60.09
-64.54
-79.12
-97.82
-114.16
-124.36
-128.42
-128.04
-124.76
-118.37
-106.57
-87.16
-59.38
-24.55
14.20
53.17
89.40
121.37
148.24
169.29
182.76
186.18
178.50
161.62
141.31
126.27
124.93
141.99
176.29
220.23
262.46
292.19
302.55
292.13
264.20
225.48
183.52
144.55
111.81
85.02
62.58
42.35
22.27
0.55
-23.61
-49.70
-76.58
-104.11
-134.44
-169.02
-208.45
-253.17
-304.08
-360.86
-420.89
-478.49
-526.31
-557.73
-565.09
-542.39
-488.47
-408.33
-309.66
-200.03
-84.65
41.84
166.82
268.55
331.40
354.49
346.94
321.79
290.87
262.55
238.68
215.30
189.05
160.18
132.14
105.80
82.55
63.78
51.59
45.34
42.58
42.02
43.83
47.94
51.52
52.20
49.85
49.89
54.72
63.46
73.15
80.20
80.64
70.32
49.09
21.38
-4.55
-25.04
-40.32
-53.10
-64.97
-64.46
-44.98
-9.83
17.74
31.45
28.17
12.60
-9.14
-27.55
-33.72
-25.79
-8.71
8.54
19.23
18.18
6.49
-10.21
-24.08
-30.25
-29.79
-26.85
-25.02
-23.79
-22.97
-22.02
-22.04
-24.72
-31.70
-44.03
-60.07
-75.96
-86.43
-89.23
-85.08
-77.55
-71.19
-69.96
-75.40
-85.68
-95.51
-98.32
-91.08
-76.12
-61.98
-59.16
-75.14
-109.81
-154.41
-194.75
-216.92
-213.03
-183.53
-135.33
-77.90
-20.65
28.95
65.63
86.35
90.66
80.91
62.37
41.63
25.36
17.89
20.88
33.26
52.30
74.31
95.04
110.56
117.99
117.25
111.38
105.07
102.42
103.51
104.11
96.74
74.80
35.68
-17.21
-75.91
-130.67
-173.68
-200.73
-210.57
-204.35
-184.28
-154.23
-119.71
-86.91
-60.29
-39.61
-19.35
9.10
51.99
109.29
172.92
229.53
266.02
275.22
258.19
222.62
178.36
133.24
91.20
53.36
20.27
-6.49
-24.68
-32.59
-30.86
-23.35
-17.08
-20.00
-38.29
-73.50
-120.20
-167.08
-199.88
-206.85
-183.29
-133.58
-69.13
-3.64
52.55
95.48
126.70
150.10
168.67
182.52
190.02
189.91
181.98
167.28
146.78
120.62
88.49
50.90
10.35
-28.63
-60.99
-83.29
-94.72
-96.91
-93.53
-87.97
-82.58
-78.84
-77.73
-80.83
-89.88
-105.73
-127.22
-150.56
-170.63
-182.82
-184.91
-178.34
-167.20
-156.04
-147.33
-140.22
-131.75
-118.59
-99.80
-77.02
-53.95
-33.74
-17.40
-2.64
14.66
37.79
67.25
99.83
130.87
156.58
174.87
185.53
189.70
188.58
182.72
172.50
158.97
144.95
134.18
128.81
128.31
130.52
133.08
133.26
129.15
120.58
109.14
97.52
85.99
72.48
53.78
27.94
-5.84
-46.44
-90.78
-134.54
-165.16
-171.33
-153.29
-123.87
-96.99
-79.84
-71.72
-67.79
-61.85
-49.18
-30.14
-9.46
6.21
12.23
7.54
-6.24
-24.41
-42.72
-57.91
-69.48
-77.36
-80.24
-75.48
-61.60
-40.44
-17.15
1.54
10.39
6.85
-8.08
-29.81
-51.10
-65.06
-67.55
-58.85
-43.34
-27.50
-17.90
-17.77
-25.92
-37.50
-47.45
-53.62
-57.34
-61.67
-67.61
-72.19
-69.94
-56.11
-30.43
1.85
32.22
53.14
61.29
57.81
46.34
30.93
14.61
-0.08
-11.13
-16.77
-15.92
-9.44
0.58
11.49
21.00
27.39
28.84
23.78
11.80
-4.49
-19.54
-25.18
-12.78
23.03
82.25
159.38
245.28
330.15
404.98
461.09
491.95
495.56
474.89
436.63
389.30
340.66
296.23
258.95
227.19
198.34
172.04
149.50
131.81
118.91
109.42
101.57
94.02
82.47
61.91
31.40
-8.90
-59.11
-118.77
-187.32
-263.74
-328.83
-363.16
-358.26
-317.95
-254.71
-181.26
-105.80
-34.74
26.94
77.06
112.06
126.29
130.85
135.50
143.17
154.32
167.33
180.36
192.17
196.29
185.75
161.58
132.40
98.86
61.82
22.06
-19.09
-38.68
-24.22
-13.32
-21.42
-36.90
-56.61
-77.76
-98.12
-116.14
-130.95
-146.48
-166.50
-186.13
-201.94
-215.26
-226.26
-234.90
-241.36
-246.28
-253.50
-266.29
-280.94
-294.40
-306.84
-317.59
-325.96
-331.81
-335.74
-340.43
-348.39
-358.07
-368.83
-382.38
-399.50
-419.83
-441.46
-461.40
-477.39
-488.34
-493.40
-493.88
-492.32
-489.44
-483.34
-470.46
-447.66
-414.47
-373.50
-328.75
-284.47
-243.50
-206.35
-171.97
-139.21
-107.83
-78.57
-52.53
-30.24
-11.22
5.78
22.07
38.47
54.87
70.48
84.21
95.38
103.94
110.54
116.25
122.06
128.44
135.20
141.70
147.08
150.73
152.52
152.81
152.30
151.68
151.48
151.87
152.73
153.72
154.52
154.87
154.62
153.63
151.66
148.40
143.41
136.23
126.55
114.37
100.03
84.28
68.11
52.62
38.73
27.06
17.79
10.71
5.44
1.60
-0.96
-2.15
-1.68
0.70
4.96
10.70
17.26
23.91
30.18
36.17
42.52
50.17
59.99
72.43
87.32
104.00
121.63
139.58
157.69
176.33
196.35
218.99
245.61
277.18
313.35
351.81
387.91
415.54
428.81
424.03
401.38
365.20
322.85
282.68
251.77
234.33
231.19
240.13
256.97
276.54
293.69
303.92
304.01
292.32
268.99
235.98
196.61
154.77
113.97
76.58
43.33
13.76
-13.02
-37.41
-58.83
-75.94
-87.42
-92.74
-92.78
-89.56
-85.49
-82.45
-81.00
-79.95
-76.93
-69.17
-54.58
-31.96
-1.81
33.64
70.69
105.08
133.39
153.49
164.93
168.43
165.56
157.93
146.79
133.02
117.43
101.44
86.07
71.41
56.28
39.85
22.12
4.49
-10.66
-20.75
-22.88
-16.89
-5.40
6.44
15.60
21.18
24.34
26.76
29.96
37.87
52.47
73.69
97.76
123.66
151.04
179.50
207.30
232.37
257.77
285.29
314.67
340.59
362.81
382.83
402.66
421.69
436.79
448.55
453.16
443.23
406.63
342.32
257.61
165.71
79.69
-27.89
-162.97
-314.01
-429.89
-509.17
-562.04
-606.69
-650.00
-694.91
-741.34
-780.64
-804.81
-808.18
-793.04
-758.35
-705.10
-637.28
-562.81
-489.35
-416.59
-342.47
-265.55
-190.55
-119.48
-54.20
4.80
57.92
107.67
160.40
219.73
284.23
345.52
396.27
430.67
445.68
440.26
415.65
376.23
326.54
270.15
208.00
141.11
69.88
-5.15
-82.14
-156.24
-218.81
-260.25
-273.97
-260.53
-227.78
-188.83
-156.92
-140.28
-139.27
-147.58
-156.43
-159.09
-153.42
-141.28
-126.18
-110.88
-96.54
-83.40
-71.89
-62.91
-57.24
-54.56
-53.02
-50.01
-43.71
-34.25
-23.95
-16.13
-13.35
-16.03
-22.22
-28.66
-32.55
-32.82
-30.48
-27.65
-26.14
-26.61
-28.43
-30.68
-33.01
-36.05
-41.03
-48.77
-58.86
-69.62
-78.53
-83.27
-82.44
-76.14
-65.70
-53.08
-40.14
-27.94
-16.63
-5.63
5.70
17.49
29.01
38.81
45.35
47.66
45.96
41.56
36.33
31.78
28.40
25.64
22.63
18.84
14.61
10.93
8.73
8.40
9.47
10.98
11.94
11.76
10.27
7.40
2.90
-3.64
-12.43
-23.13
-34.89
-46.41
-56.52
-64.26
-69.00
-70.26
-67.65
-61.06
-50.76
-37.78
-23.59
-9.71
2.76
13.47
22.59
30.45
37.04
41.88
44.38
44.43
42.58
39.89
37.33
35.31
33.58
31.66
29.39
27.14
25.52
24.75
24.45
23.70
21.62
17.99
13.30
8.40
3.90
-0.36
-5.07
-10.83
-17.69
-24.99
-31.71
-36.96
-40.14
-40.85
-38.74
-33.47
-24.99
-13.98
-1.89
9.49
18.72
25.45
30.41
34.99
40.21
46.08
51.57
55.23
56.04
54.04
50.25
46.07
42.60
40.16
38.43
36.83
35.06
33.17
31.31
29.51
27.49
24.81
21.33
17.36
13.60
10.65
8.62
6.83
4.13
-0.43
-7.05
-14.96
-22.63
-28.44
-31.22
-30.59
-26.86
-20.69
-12.73
-3.61
5.99
15.28
23.37
29.59
33.86
36.63
38.64
40.36
41.71
42.18
41.38
39.46
37.32
35.92
35.64
35.88
35.49
33.60
30.42
27.29
25.76
26.51
28.72
30.43
29.79
26.13
20.45
14.65
10.33
7.83
6.28
4.27
1.00
-3.39
-8.16
-12.82
-17.71
-23.75
-31.67
-41.15
-50.54
-57.52
-60.22
-58.19
-52.45
-44.97
-37.64
-31.74
-27.65
-25.28
-24.41
-24.71
-25.73
-26.77
-27.06
-26.01
-23.56
-20.19
-16.77
-14.16
-12.82
-12.54
-12.46
-11.27
-7.70
-0.96
8.79
20.38
32.02
42.09
50.14
57.24
65.65
77.53
93.30
110.77
125.12
130.38
121.49
95.94
54.02
-2.19
-70.11
-147.17
-230.06
-313.38
-389.03
-447.72
-481.79
-488.37
-470.58
-436.08
-393.70
-350.20
-309.03
-271.23
-237.51
-209.26
-188.05
-173.96
-164.27
-154.02
-138.09
-113.68
-81.48
-44.85
-7.89
26.88
59.42
91.50
125.14
161.20
198.95
236.74
272.96
306.90
338.85
369.67
400.42
432.09
465.91
503.10
544.17
587.42
627.98
658.07
669.06
654.60
613.25
549.24
470.82
387.18
305.45
229.50
160.40
98.07
42.77
-4.58
-43.01
-72.67
-95.38
-114.13
-131.66
-149.17
-165.93
-180.14
-190.75
-198.79
-207.06
-218.15
-231.97
-244.60
-249.59
-241.22
-217.77
-183.11
-145.24
-113.05
-92.67
-85.23
-86.86
-90.60
-89.29
-78.32
-57.34
-30.08
-2.53
19.77
34.24
42.02
46.64
51.39
57.06
61.50
61.21
54.09
40.98
25.38
11.51
2.07
-2.97
-5.93
-9.77
-16.23
-24.89
-33.39
-38.77
-39.13
-34.63
-27.50
-20.87
-17.26
-17.28
-19.55
-21.63
-21.44
-18.53
-14.13
-10.43
-9.28
-11.20
-15.29
-19.95
-23.76
-26.18
-27.49
-28.33
-29.18
-29.96
-30.30
-29.87
-28.76
-27.52
-26.91
-27.46
-29.07
-31.07
-32.47
-32.51
-30.93
-27.97
-24.14
-19.79
-14.97
-9.53
-3.44
3.04
9.27
14.57
18.41
20.74
21.87
22.18
21.88
20.84
18.84
15.82
12.09
8.31
5.08
2.74
1.15
-0.19
-1.83
-4.03
-6.78
-9.84
-13.01
-16.22
-19.60
-23.38
-27.89
-33.25
-39.38
-45.96
-52.35
-57.96
-62.52
-66.36
-70.32
-75.51
-82.76
-92.18
-102.97
-113.68
-122.69
-128.81
-131.62
-131.56
-129.70
-127.36
-125.76
-125.52
-126.54
-127.92
-128.20
-125.52
-118.06
-104.27
-83.10
-54.12
-17.45
26.56
77.49
134.91
197.86
264.02
329.43
388.73
436.38
468.27
482.80
481.12
466.39
442.46
412.95
380.87
348.81
319.14
293.95
274.51
260.73
251.07
243.17
234.80
224.69
212.72
199.49
185.63
171.21
155.48
137.05
114.23
85.42
49.50
6.35
-42.36
-92.69
-138.59
-173.32
-191.84
-193.17
-181.54
-165.29
-153.80
-153.83
-167.02
-189.41
-213.33
-230.59
-235.66
-227.55
-209.93
-189.55
-173.57
-166.74
-169.41
-177.42
-183.79
-181.73
-167.69
-142.75
-112.20
-83.18
-62.02
-52.13
-53.62
-64.03
-79.81
-97.54
-114.55
-129.23
-140.87
-149.48
-155.64
-160.27
-164.19
-167.70
-170.27
-170.44
-166.30
-156.36
-140.46
-120.00
-97.39
-74.87
-53.27
-31.65
-7.76
20.53
54.24
92.89
134.94
178.63
222.37
264.56
303.05
334.83
356.30
364.21
356.77
334.30
299.27
255.63
208.02
160.84
117.44
79.50
46.69
16.91
-12.97
-45.82
-82.90
-123.21
-163.66
-200.31
-229.70
-250.06
-261.60
-265.98
-265.10
-260.19
-251.47
-238.54
-221.26
-200.48
-178.10
-156.62
-138.23
-123.94
-113.30
-104.73
-96.34
-86.95
-76.68
-66.99
-59.84
-56.60
-57.13
-59.56
-61.16
-59.52
-53.71
-44.78
-35.16
-27.51
-23.39
-22.76
-24.27
-26.35
-28.23
-30.41
-34.10
-40.35
-49.11
-59.15
-68.61
-75.92
-80.43
-82.43
-82.65
-81.60
-79.17
-74.83
-67.99
-58.59
-46.99
-33.91
-20.12
-6.42
6.23
16.68
23.73
26.68
25.81
22.63
19.27
17.60
18.25
20.39
22.26
22.24
20.00
16.85
15.28
17.72
25.29
37.12
50.61
62.50
70.09
72.30
69.65
63.65
55.80
46.88
36.95
25.93
14.45
4.09
-3.04
-5.31
-2.50
4.02
11.94
19.11
24.45
28.20
31.38
34.93
39.05
43.14
46.24
47.63
47.31
46.02
44.79
44.49
45.48
47.49
49.81
51.64
52.36
51.79
50.21
48.19
46.35
45.12
44.51
44.21
43.73
42.65
40.80
38.34
35.59
32.81
30.00
26.78
22.55
16.76
9.24
0.50
-8.29
-15.60
-20.11
-21.08
-18.67
-13.75
-7.40
-0.43
6.83
14.46
22.42
30.32
37.28
42.26
44.65
44.46
42.41
39.45
36.31
33.29
30.24
26.93
23.45
20.23
17.96
17.18
17.89
19.41
20.65
20.57
18.70
15.40
11.71
8.77
7.23
6.94
7.04
6.40
4.23
0.38
-4.70
-10.33
-15.92
-21.04
-25.35
-28.29
-29.08
-26.96
-21.61
-13.46
-3.71
6.00
14.21
20.03
23.45
25.07
25.75
26.18
26.60
26.81
26.42
25.19
23.11
20.54
17.92
15.61
13.70
12.08
10.54
8.90
7.17
5.48
4.09
3.18
2.88
3.06
3.33
3.11
1.74
-1.12
-5.46
-10.77
-16.32
-21.36
-25.49
-28.62
-30.71
-31.66
-31.08
-28.49
-23.61
-16.69
-8.54
-0.34
6.78
12.20
15.92
18.43
20.29
21.79
22.76
22.75
21.38
18.73
15.38
12.19
9.97
9.01
9.07
9.56
9.80
9.44
8.49
7.19
5.76
4.28
2.59
0.42
-2.37
-5.73
-9.36
-12.84
-15.86
-18.39
-20.60
-22.83
-25.17
-27.35
-28.65
-28.18
-25.29
-19.92
-12.73
-4.84
2.57
8.73
13.44
16.91
19.51
21.37
22.36
22.28
21.06
19.00
16.74
14.91
13.88
13.54
13.43
13.04
12.16
10.95
9.81
9.09
8.81
8.59
7.94
6.45
4.12
1.26
-1.68
-4.46
-7.14
-10.07
-13.52
-17.32
-20.87
-23.21
-23.53
-21.52
-17.50
-12.22
-6.56
-1.07
4.09
9.01
13.76
18.09
21.56
23.62
24.08
23.16
21.41
19.47
17.73
16.27
14.98
13.79
12.82
12.30
12.43
13.17
14.15
14.87
14.89
13.95
12.06
9.47
6.54
3.66
1.09
-1.12
-3.15
-5.33
-7.82
-10.47
-12.76
-13.91
-13.30
-10.68
-6.30
-0.72
5.39
11.43
16.92
21.50
24.85
26.81
27.31
26.45
24.40
21.35
17.53
13.24
8.87
4.88
1.67
-0.63
-2.11
-3.18
-4.31
-5.92
-8.20
-11.03
-14.06
-16.86
-19.16
-20.93
-22.44
-24.09
-26.18
-28.84
-32.04
-35.63
-39.37
-42.92
-45.70
-46.96
-46.00
-42.47
-36.70
-29.61
-22.42
-16.13
-11.17
-7.30
-3.94
-0.58
2.87
6.09
8.62
10.17
10.82
10.83
10.46
9.75
8.54
6.71
4.43
2.33
1.20
1.56
3.34
5.80
7.82
8.43
7.29
4.79
1.78
-0.87
-2.78
-4.13
-5.50
-7.43
-10.09
-13.10
-15.65
-16.84
-16.04
-13.14
-8.70
-3.75
0.47
3.03
3.60
2.61
0.97
-0.47
-1.41
-2.30
-4.18
-8.11
-14.46
-22.72
-31.53
-39.24
-44.62
-47.41
-48.44
-49.36
-51.92
-57.34
-66.08
-77.92
-92.09
-107.26
-121.29
-131.15
-133.21
-124.13
-101.63
-65.58
-18.00
37.84
98.92
163.40
230.50
299.16
366.62
428.30
477.98
509.82
520.39
510.04
482.57
443.18
396.24
343.98
288.03
229.86
172.27
119.84
78.06
51.24
40.45
42.46
50.79
59.98
66.13
67.94
66.86
65.92
67.93
73.80
81.56
87.19
88.85
86.02
79.32
70.43
61.62
55.01
51.70
51.25
38.12
3.77
-50.89
-116.05
-178.03
-226.59
-257.95
-273.79
-278.86
-278.73
-275.76
-270.58
-264.72
-260.88
-261.92
-269.37
-282.55
-298.18
-311.36
-314.81
-295.97
-251.95
-189.39
-119.51
-53.32
7.86
66.61
123.77
177.85
225.19
259.90
276.94
272.83
252.04
220.85
190.19
169.48
157.59
149.26
138.78
120.40
91.98
55.30
14.00
-26.91
-67.22
-108.32
-150.05
-191.58
-233.68
-275.55
-314.20
-345.52
-363.65
-368.57
-362.96
-349.04
-308.92
-233.96
-128.10
-7.14
94.43
172.38
228.91
266.22
291.26
306.93
312.37
307.40
293.83
275.32
258.48
245.30
235.71
229.51
225.88
221.99
215.86
207.21
197.45
190.55
187.15
186.47
187.45
188.47
186.69
179.95
167.37
149.49
128.81
106.11
81.51
55.04
26.35
-5.37
-40.41
-78.18
-117.02
-154.10
-187.45
-215.73
-238.31
-255.46
-268.44
-278.90
-288.66
-299.23
-311.33
-325.13
-339.83
-353.75
-364.82
-371.24
-372.10
-367.75
-359.37
-348.57
-336.72
-324.64
-312.61
-300.60
-288.55
-276.63
-265.24
-255.12
-247.25
-242.47
-240.99
-241.89
-243.01
-241.62
-235.52
-224.06
-208.27
-190.00
-170.39
-148.71
-122.45
-88.68
-45.97
4.27
57.97
110.02
156.16
194.02
223.11
243.70
255.94
259.75
255.38
244.00
227.43
207.38
184.46
157.95
126.74
90.75
52.07
15.05
-14.43
-30.74
-30.19
-12.50
18.68
56.37
91.80
116.85
126.38
119.62
99.93
73.09
44.77
18.74
-3.79
-23.34
-40.86
-56.78
-70.86
-82.66
-92.14
-99.79
-106.26
-111.81
-116.10
-118.24
-117.32
-113.02
-105.94
-97.33
-88.60
-80.83
-74.50
-69.51
-65.37
-61.66
-58.16
-55.03
-52.69
-51.58
-51.86
-53.22
-54.88
-55.83
-55.37
-53.36
-50.25
-46.73
-43.12
-39.07
-33.79
-26.91
-19.07
-12.32
-9.58
-13.57
-25.39
-43.70
-64.66
-82.70
-92.13
-88.50
-69.57
-35.59
11.05
66.12
123.78
176.62
216.50
236.09
231.01
201.54
152.78
92.83
29.84
-30.54
-86.07
-136.53
-181.72
-219.89
-248.09
-263.87
-267.07
-260.37
-247.88
-232.90
-216.11
-195.50
-167.84
-130.69
-83.90
-29.74
27.79
84.07
134.67
176.13
206.84
227.85
243.39
259.98
284.10
319.17
363.16
408.63
445.26
463.93
460.36
436.40
398.67
355.36
312.99
274.81
241.01
209.91
179.56
148.18
113.74
73.72
25.40
-32.88
-100.14
-172.10
-241.89
-302.21
-347.78
-376.77
-390.62
-392.43
-384.97
-369.60
-346.60
-316.24
-279.77
-239.67
-198.81
-159.35
-121.97
-85.86
-49.28
-10.25
32.49
78.57
125.18
167.10
197.61
210.41
202.12
173.96
131.63
83.45
37.42
-1.21
-30.82
-52.53
-68.47
-80.18
-88.27
-93.04
-95.40
-97.15
-100.27
-105.64
-112.25
-117.20
-116.86
-108.50
-91.44
-67.13
-38.16
-7.00
24.81
56.51
87.24
115.29
138.02
152.69
157.76
153.75
143.20
129.69
116.58
105.98
98.60
94.05
91.60
90.53
90.17
89.84
88.73
86.21
82.09
76.81
71.24
66.35
62.74
60.53
59.65
60.13
62.26
66.34
72.37
79.90
88.47
98.14
109.78
124.49
142.50
162.29
180.58
193.62
199.04
197.26
191.58
186.57
185.92
190.63
198.66
206.03
208.68
203.99
191.74
173.72
153.01
132.71
114.93
100.26
87.67
75.21
61.09
44.77
27.33
11.23
-0.99
-8.11
-11.18
-13.69
-20.59
-36.97
-66.22
-108.45
-159.39
-210.51
-250.57
-268.45
-256.95
-215.85
-152.94
-82.20
-19.50
22.33
37.19
26.62
-2.24
-40.28
-80.05
-117.45
-151.70
-183.44
-212.71
-237.52
-253.93
-257.10
-243.29
-211.70
-166.02
-114.43
-67.81
-36.17
-24.87
-32.44
-51.34
-71.33
-83.66
-83.89
-72.06
-50.73
-22.57
10.46
45.87
78.83
101.27
103.20
76.14
16.73
-70.93
-175.77
-282.69
-376.78
-447.59
-491.66
-512.61
-518.80
-519.40
-520.88
-525.04
-529.47
-529.78
-522.24
-505.29
-479.52
-446.48
-407.44
-362.82
-312.53
-256.75
-196.57
-133.99
-71.70
-12.22
42.63
92.11
136.41
176.38
213.11
247.57
280.56
312.99
346.10
381.53
420.43
462.46
504.68
541.76
567.35
576.45
567.40
542.74
508.16
470.29
434.60
404.18
380.21
362.90
352.57
349.59
353.47
361.90
370.48
373.68
366.66
346.99
315.56
276.34
235.10
198.03
170.64
157.00
159.06
176.07
203.79
234.68
259.22
268.45
256.76
223.72
174.05
115.74
57.29
5.47
-35.58
-64.19
-80.27
-84.76
-79.42
-67.13
-51.68
-37.20
-27.16
-23.40
-25.78
-32.56
-41.33
-49.96
-57.24
-62.91
-67.39
-71.23
-74.76
-77.92
-80.49
-82.16
-82.77
-82.33
-80.92
-78.69
-75.85
-72.58
-69.11
-65.61
-62.20
-59.01
-56.19
-54.05
-52.92
-53.12
-54.71
-57.42
-60.74
-64.00
-66.70
-68.66
-69.87
-70.47
-70.52
-69.99
-68.81
-67.08
-65.17
-63.53
-62.50
-62.10
-61.92
-61.29
-59.59
-56.51
-52.19
-47.15
-42.10
-37.64
-34.21
-31.93
-30.72
-30.37
-30.62
-31.19
-31.80
-32.24
-32.39
-32.31
-32.16
-32.09
-32.14
-32.14
-31.74
-30.63
-28.74
-26.35
-23.97
-22.05
-20.87
-20.41
-20.50
-20.98
-21.79
-22.92
-24.28
-25.69
-26.91
-27.73
-28.14
-28.33
-28.52
-28.85
-29.10
-28.77
-27.27
-24.17
-19.45
-13.55
-7.31
-1.65
2.65
5.27
6.29
6.08
5.06
3.49
1.46
-1.03
-3.94
-7.02
-9.85
-12.00
-13.17
-13.36
-12.86
-12.10
-11.40
-10.93
-10.67
-10.56
-10.64
-11.08
-11.99
-13.44
-15.30
-17.38
-19.47
-21.50
-23.53
-25.68
-27.99
-30.30
-32.20
-33.20
-32.77
-30.56
-26.54
-20.98
-14.47
-7.79
-1.77
2.89
5.72
6.66
6.06
4.56
2.92
1.69
1.00
0.57
-0.11
-1.42
-3.39
-5.68
-7.63
-8.79
-8.90
-8.12
-6.85
-5.57
-4.71
-4.52
-5.09
-6.43
-8.44
-10.95
-13.68
-16.34
-18.73
-20.75
-22.50
-24.14
-25.77
-27.22
-28.06
-27.65
-25.39
-21.05
-14.94
-7.83
-0.71
5.59
10.57
14.20
16.63
18.03
18.52
18.12
16.96
15.33
13.61
12.13
11.00
10.04
8.93
7.33
5.16
2.59
-0.00
-2.22
-3.83
-4.90
-5.69
-6.60
-7.92
-9.79
-12.12
-14.73
-17.37
-19.90
-22.24
-24.40
-26.46
-28.46
-30.34
-31.88
-32.69
-32.31
-30.31
-26.45
-20.88
-14.09
-6.85
0.03
5.84
10.15
12.82
13.92
13.74
12.63
10.95
9.04
7.12
5.44
4.16
3.45
3.36
3.74
4.34
4.89
5.27
5.56
6.00
6.74
7.61
8.07
7.52
5.54
2.26
-1.68
-5.46
-8.47
-10.61
-12.25
-14.01
-16.37
-19.50
-23.24
-27.14
-30.57
-32.80
-33.11
-30.95
-26.16
-19.19
-11.03
-3.04
3.60
8.18
10.62
11.30
10.80
9.52
7.66
5.25
2.45
-0.48
-3.12
-5.17
-6.59
-7.50
-8.12
-8.47
-8.39
-7.68
-6.25
-4.30
-2.29
-0.72
0.02
-0.25
-1.44
-3.38
-5.87
-8.73
-11.80
-14.91
-17.98
-20.97
-23.97
-27.11
-30.47
-33.88
-36.85
-38.55
-38.05
-34.72
-28.49
-20.07
-10.67
-1.55
6.37
12.86
18.16
22.68
26.65
29.96
32.34
33.55
33.53
32.54
31.00
29.30
27.78
26.59
25.76
25.23
24.91
24.67
24.37
23.90
23.20
22.24
21.02
19.61
18.01
16.26
14.34
12.18
9.62
6.55
2.91
-1.25
-5.73
-10.31
-14.83
-19.25
-23.66
-28.14
-32.56
-36.49
-39.27
-40.18
-38.66
-34.55
-28.11
-19.86
-10.50
-0.73
8.83
17.57
24.96
30.58
34.20
35.86
35.75
34.32
32.04
29.33
26.51
23.77
21.25
19.05
17.34
16.21
15.66
15.60
15.79
15.93
15.78
15.19
14.07
12.43
10.33
7.83
4.94
1.74
-1.66
-5.13
-8.50
-11.63
-14.35
-16.62
-18.46
-20.07
-21.74
-23.74
-26.19
-28.86
-31.27
-32.74
-32.57
-30.23
-25.48
-18.49
-9.83
-0.48
8.54
16.23
21.98
25.60
27.32
27.66
27.12
26.10
24.86
23.67
22.74
22.26
22.24
22.48
22.62
22.30
21.36
19.85
17.96
15.88
13.71
11.41
8.85
5.95
2.66
-0.98
-4.90
-8.98
-13.10
-17.08
-20.72
-23.86
-26.41
-28.48
-30.25
-32.02
-34.03
-36.47
-39.47
-43.09
-47.30
-51.77
-55.76
-58.15
-57.79
-53.94
-46.61
-36.69
-25.59
-14.77
-5.17
2.90
9.67
15.48
20.53
24.75
27.97
30.07
31.15
31.45
31.26
30.81
30.22
29.52
28.71
27.76
26.63
25.33
23.82
22.16
20.41
18.71
17.20
15.99
15.18
14.77
14.68
14.66
14.30
13.16
10.91
7.54
3.40
-0.88
-4.76
-8.01
-10.84
-13.73
-17.20
-21.58
-26.87
-32.78
-38.72
-43.89
-47.31
-48.03
-45.42
-39.48
-30.92
-20.96
-11.03
-2.19
4.97
10.35
14.10
16.44
17.56
17.64
17.03
16.12
15.26
14.63
14.25
14.10
14.26
14.98
16.54
18.99
22.00
24.91
26.95
27.64
26.92
25.12
22.74
20.14
17.46
14.55
11.18
7.26
2.94
-1.38
-5.19
-8.01
-9.67
-10.24
-10.10
-9.73
-9.68
-10.43
-12.34
-15.58
-19.99
-25.04
-29.78
-33.02
-33.65
-31.04
-25.28
-17.24
-8.22
0.37
7.52
12.77
16.20
18.30
19.60
20.44
20.99
21.20
21.02
20.52
19.83
19.15
18.62
18.24
17.94
17.62
17.21
16.70
16.08
15.36
14.42
13.20
11.70
9.97
8.12
6.32
4.78
3.72
3.28
3.47
4.15
5.02
5.66
5.84
5.46
4.58
3.33
1.72
-0.45
-3.49
-7.60
-12.65
-18.06
-22.83
-25.86
-26.29
-23.76
-18.58
-11.55
-3.79
3.53
9.50
13.60
15.80
16.45
16.07
15.23
14.25
13.16
11.82
10.03
7.83
5.43
3.17
1.30
-0.12
-1.19
-2.05
-2.82
-3.50
-4.10
-4.61
-5.05
-5.45
-5.85
-6.33
-6.92
-7.63
-8.38
-9.06
-9.54
-9.78
-9.90
-10.21
-11.07
-12.85
-15.55
-19.00
-22.70
-25.99
-28.12
-28.40
-26.41
-22.12
-16.01
-8.93
-1.83
4.59
9.99
14.33
17.64
19.76
20.38
19.17
16.20
12.06
7.85
4.68
3.26
3.56
4.89
6.26
6.95
6.83
6.29
5.95
6.19
6.86
7.43
7.25
5.95
3.55
0.32
-3.47
-7.67
-12.24
-17.02
-21.71
-25.82
-28.99
-31.17
-32.63
-33.83
-35.09
-36.35
-37.10
-36.58
-34.13
-29.39
-22.50
-14.03
-4.84
4.13
12.01
18.14
22.17
24.07
24.06
22.57
20.15
17.38
14.77
12.69
11.31
10.50
9.90
9.06
7.73
6.05
4.45
3.50
3.51
4.30
5.29
5.76
5.14
3.26
0.25
-3.53
-7.69
-11.85
-15.62
-18.66
-20.84
-22.34
-23.66
-25.44
-28.16
-31.72
-35.45
-38.19
-38.72
-36.28
-30.77
-22.94
-13.99
-5.29
2.11
7.62
11.18
13.04
13.60
13.30
12.46
11.35
10.08
8.75
7.36
6.02
4.84
4.05
3.84
4.36
5.63
7.56
9.92
12.38
14.51
15.75
15.59
13.84
10.67
6.70
2.66
-0.79
-3.53
-5.90
-8.59
-12.28
-17.30
-23.45
-29.91
-35.50
-38.88
-39.01
-35.36
-28.18
-18.37
-7.26
3.72
13.46
21.25
26.86
30.33
31.86
31.69
30.14
27.60
24.43
21.02
17.62
14.40
11.46
8.89
6.76
5.04
3.76
2.89
2.44
2.36
2.58
2.94
3.17
2.96
2.06
0.45
-1.75
-4.24
-6.78
-9.35
-12.13
-15.43
-19.56
-24.64
-30.42
-36.23
-41.03
-43.58
-42.83
-38.34
-30.53
-20.56
-10.03
-0.39
7.50
13.42
17.61
20.40
21.95
22.24
21.15
18.84
15.68
12.32
9.40
7.45
6.72
7.18
8.62
10.61
12.75
14.71
16.29
17.42
18.03
17.99
17.06
14.97
11.68
7.46
2.91
-1.28
-4.56
-6.78
-8.35
-10.00
-12.54
-16.48
-21.75
-27.77
-33.45
-37.56
-39.00
-37.13
-31.90
-23.85
-14.07
-3.91
5.40
12.92
18.27
21.57
23.30
24.02
24.17
23.97
23.43
22.46
21.04
19.26
17.34
15.51
13.96
12.69
11.69
10.95
10.56
10.62
11.12
11.79
12.14
11.62
9.91
7.14
3.84
0.74
-1.58
-2.96
-3.62
-4.09
-4.84
-6.17
-8.13
-10.73
-13.93
-17.78
-22.13
-26.54
-30.17
-31.92
-30.85
-26.42
-18.85
-8.94
2.14
13.20
23.22
31.43
37.28
40.45
40.94
39.07
35.52
31.17
26.85
23.12
20.16
17.84
15.97
14.51
13.61
13.57
14.60
16.51
18.87
20.96
22.21
22.29
21.26
19.40
17.00
14.28
11.24
7.82
4.02
-0.05
-4.15
-7.98
-11.28
-13.91
-15.88
-17.41
-18.88
-20.63
-22.88
-25.51
-27.92
-29.24
-28.59
-25.41
-19.84
-12.60
-4.89
2.06
7.41
10.79
12.39
12.62
11.90
10.47
8.39
5.74
2.70
-0.31
-2.73
-4.07
-4.10
-2.94
-0.98
1.27
3.39
5.21
6.74
8.06
9.23
10.17
10.71
10.56
9.56
7.69
5.11
2.13
-0.98
-3.95
-6.78
-9.50
-12.27
-15.25
-18.61
-22.52
-26.92
-31.45
-35.27
-37.30
-36.46
-32.21
-24.88
-15.59
-5.93
2.61
9.10
13.31
15.60
16.59
16.86
16.65
16.02
14.84
13.16
11.18
9.34
8.01
7.30
7.01
6.69
6.07
5.18
4.44
4.36
5.19
6.80
8.59
9.85
10.03
8.91
6.62
3.52
0.07
-3.32
-6.32
-8.74
-10.58
-12.09
-13.69
-15.87
-19.07
-23.42
-28.73
-34.38
-39.49
-43.01
-44.00
-41.79
-36.25
-27.86
-17.66
-7.01
2.72
10.58
16.24
20.00
22.51
24.44
26.13
27.58
28.54
28.76
28.24
27.15
25.87
24.67
23.62
22.57
21.26
19.46
17.13
14.31
11.17
7.85
4.50
1.21
-1.94
-4.96
-7.96
-11.10
-14.50
-18.12
-21.72
-25.02
-27.80
-30.13
-32.26
-34.49
-36.97
-39.58
-42.11
-44.37
-46.30
-47.79
-48.48
-47.61
-44.23
-37.60
-27.61
-14.97
-1.10
12.41
24.26
33.71
40.64
45.35
48.30
49.93
50.55
50.32
49.22
47.20
44.14
40.07
35.22
30.04
25.13
21.12
18.51
17.48
17.81
18.92
20.02
20.39
19.58
17.61
14.85
11.84
9.06
6.69
4.65
2.75
0.85
-1.14
-3.19
-5.32
-7.58
-10.09
-12.94
-16.23
-20.00
-24.24
-28.78
-33.21
-36.88
-38.99
-38.76
-35.73
-29.91
-21.89
-12.66
-3.31
5.16
12.11
17.27
20.83
23.21
24.89
26.18
27.06
27.27
26.53
24.77
22.28
19.57
17.13
15.25
13.93
13.08
12.54
12.23
12.08
12.01
11.82
11.40
10.68
9.78
8.76
7.58
6.11
4.20
1.85
-0.72
-3.15
-5.18
-6.76
-8.10
-9.52
-11.31
-13.68
-16.68
-20.30
-24.36
-28.46
-31.84
-33.52
-32.54
-28.46
-21.44
-12.48
-2.96
5.76
12.75
17.67
20.58
21.73
21.32
19.48
16.43
12.56
8.51
4.97
2.48
1.32
1.40
2.31
3.52
4.46
4.81
4.54
3.92
3.40
3.26
3.49
3.73
3.37
2.01
-0.45
-3.68
-7.20
-10.58
-13.65
-16.46
-19.22
-22.02
-24.88
-27.81
-30.83
-33.94
-37.07
-39.86
-41.58
-41.25
-38.03
-31.52
-22.21
-11.29
-0.37
9.11
16.29
21.07
23.87
25.34
25.95
25.92
25.32
24.21
22.71
20.99
19.22
17.48
15.82
14.29
13.05
12.23
11.91
11.99
12.26
12.47
12.40
11.96
11.13
9.86
8.09
5.72
2.70
-0.86
-4.69
-8.39
-11.56
-14.02
-15.80
-17.15
-18.54
-20.35
-22.84
-26.06
-29.86
-33.85
-37.41
-39.73
-40.03
-37.66
-32.44
-24.65
-15.05
-4.76
5.07
13.41
19.55
23.26
24.81
24.82
24.03
23.02
22.07
21.18
20.13
18.76
17.07
15.25
13.60
12.35
11.66
11.57
11.99
12.69
13.37
13.72
13.52
12.71
11.52
10.23
9.09
8.15
7.16
5.71
3.42
0.19
-3.75
-7.86
-11.65
-14.90
-17.73
-20.53
-23.69
-27.39
-31.50
-35.61
-39.14
-41.44
-41.87
-39.84
-34.90
-27.07
-16.89
-5.52
5.57
14.97
21.83
25.97
27.82
28.05
27.37
26.34
25.25
24.25
23.35
22.45
21.35
19.88
17.97
15.82
13.84
12.54
12.23
12.92
14.21
15.54
16.33
16.23
15.15
13.24
10.80
8.23
5.83
3.76
1.94
0.03
-2.41
-5.62
-9.61
-13.98
-18.19
-21.77
-24.63
-26.99
-29.38
-32.19
-35.43
-38.59
-40.74
-40.83
-38.11
-32.35
-24.04
-14.24
-4.24
4.84
12.22
17.67
21.30
23.43
24.40
24.47
23.87
22.83
21.53
20.17
18.94
18.05
17.63
17.75
18.33
19.12
19.77
19.91
19.38
18.23
16.58
14.71
12.81
10.93
9.09
7.16
5.02
2.50
-0.53
-4.16
-8.23
-12.35
-15.96
-18.52
-19.83
-20.14
-20.10
-20.56
-22.19
-25.24
-29.40
-33.85
-37.50
-39.24
-38.25
-34.20
-27.34
-18.45
-8.63
0.90
9.11
15.34
19.32
21.16
21.18
19.89
17.81
15.40
13.06
11.03
9.55
8.74
8.74
9.51
10.89
12.54
14.07
15.15
15.68
15.73
15.49
15.10
14.53
13.65
12.24
10.20
7.64
4.81
2.01
-0.47
-2.43
-3.95
-5.24
-6.72
-8.86
-11.99
-16.32
-21.72
-27.77
-33.79
-38.85
-42.01
-42.43
-39.62
-33.64
-25.04
-14.85
-4.31
5.35
13.24
18.96
22.56
24.42
25.02
24.71
23.66
21.92
19.55
16.73
13.80
11.21
9.28
8.13
7.61
7.51
7.63
7.86
8.25
8.76
9.24
9.45
9.09
7.99
6.14
3.69
0.91
-1.94
-4.64
-7.10
-9.30
-11.41
-13.65
-16.31
-19.58
-23.54
-28.06
-32.83
-37.25
-40.54
-41.81
-40.28
-35.64
-28.19
-18.89
-9.03
0.18
7.92
13.88
18.13
20.76
21.78
21.17
19.12
16.12
12.99
10.49
9.13
8.93
9.59
10.59
11.56
12.35
13.04
13.78
14.68
15.56
15.98
15.41
13.37
9.81
5.17
0.26
-4.00
-7.09
-9.04
-10.44
-12.11
-14.70
-18.50
-23.34
-28.75
-34.14
-38.85
-42.08
-43.01
-40.99
-35.73
-27.62
-17.69
-7.37
1.94
9.27
14.25
17.06
18.21
18.24
17.58
16.46
15.03
13.45
11.89
10.53
9.49
8.73
8.20
7.78
7.42
7.13
6.89
6.61
6.07
5.03
3.25
0.75
-2.28
-5.48
-8.53
-11.30
-13.99
-17.06
-21.04
-26.28
-32.69
-39.55
-45.69
-49.69
-50.39
-47.21
-40.38
-30.81
-19.85
-8.88
0.95
8.94
14.84
18.77
21.14
22.39
22.97
23.18
23.20
23.02
22.53
21.63
20.23
18.40
16.32
14.33
12.77
11.88
11.66
11.77
11.63
10.56
8.11
4.24
-0.60
-5.63
-10.06
-13.38
-15.64
-17.31
-19.20
-22.00
-26.14
-31.42
-37.13
-42.18
-45.28
-45.42
-41.98
-35.04
-25.33
-14.20
-3.26
6.10
12.99
17.35
19.71
20.93
21.70
22.30
22.48
21.87
20.19
17.61
14.63
11.86
9.76
8.45
7.88
7.84
8.24
8.96
9.79
10.32
9.94
8.16
4.80
0.15
-5.12
-10.30
-14.95
-19.04
-22.94
-27.14
-32.07
-37.85
-44.20
-50.36
-55.14
-57.19
-55.30
-48.88
-38.27
-24.75
-10.20
3.57
15.21
24.22
30.72
35.23
38.24
40.10
40.93
40.78
39.80
38.27
36.60
35.16
34.17
33.60
33.27
32.93
32.48
32.02
31.69
31.54
31.31
30.47
28.42
24.84
19.83
13.90
7.82
2.18
-2.66
-6.78
-10.57
-14.62
-19.52
-25.67
-33.18
-41.72
-50.55
-58.50
-64.12
-66.07
-63.44
-56.17
-45.14
-31.88
-18.21
-5.63
5.06
13.76
20.86
26.81
31.78
35.60
37.95
38.59
37.62
35.52
33.02
30.77
29.21
28.47
28.44
28.90
29.68
30.72
31.92
33.08
33.78
33.43
31.51
27.78
22.43
16.12
9.71
3.97
-0.74
-4.64
-8.37
-12.77
-18.53
-25.92
-34.77
-44.42
-53.81
-61.58
-66.28
-66.55
-61.59
-51.50
-37.36
-21.05
-4.71
9.86
21.71
30.77
37.55
42.73
46.76
49.69
51.31
51.42
50.04
47.53
44.47
41.42
38.74
36.47
34.46
32.57
30.82
29.38
28.49
28.16
28.04
27.43
25.53
21.89
16.58
10.29
4.01
-1.41
-5.62
-8.82
-11.61
-14.59
-18.06
-22.00
-26.19
-30.55
-35.21
-40.47
-46.44
-52.71
-58.23
-61.48
-61.00
-55.91
-46.39
-33.61
-19.38
-5.55
6.61
16.54
24.37
30.62
35.76
40.02
43.24
45.19
45.69
44.92
43.39
41.69
40.29
39.38
38.88
38.66
38.64
38.97
39.77
40.95
42.09
42.54
41.64
39.12
35.16
30.32
25.16
20.03
14.97
9.80
4.46
-0.97
-6.19
-10.92
-15.06
-18.76
-22.26
-25.74
-29.30
-33.00
-36.90
-41.16
-45.73
-50.21
-53.64
-54.72
-52.24
-45.62
-35.26
-22.43
-8.85
3.90
14.73
23.17
29.21
33.12
35.22
35.93
35.62
34.69
33.51
32.33
31.32
30.49
29.79
29.14
28.51
27.90
27.46
27.35
27.68
28.39
29.11
29.26
28.21
25.56
21.28
15.87
10.02
4.54
-0.06
-3.61
-6.38
-8.89
-11.70
-15.22
-19.54
-24.38
-29.26
-33.64
-37.23
-40.04
-42.40
-44.90
-48.08
-52.23
-57.20
-62.30
-66.39
-68.12
-66.32
-60.39
-50.60
-38.04
-24.33
-11.21
0.02
8.75
14.96
19.19
22.00
23.85
24.97
25.37
25.15
24.56
24.04
24.05
24.91
26.57
28.72
30.89
32.72
34.07
35.04
35.77
36.26
36.33
35.65
33.93
31.12
27.47
23.43
19.55
16.24
13.58
11.40
9.22
6.66
3.50
-0.15
-3.91
-7.41
-10.43
-13.07
-15.67
-18.60
-22.14
-26.36
-31.33
-36.99
-43.19
-49.40
-54.59
-57.33
-56.28
-50.78
-41.21
-28.96
-15.93
-3.80
6.39
14.34
20.12
23.90
25.81
26.02
24.92
23.18
21.47
20.22
19.47
18.98
18.45
17.89
17.57
17.91
19.16
21.20
23.56
25.51
26.41
25.88
23.93
20.89
17.21
13.36
9.65
6.14
2.72
-0.84
-4.68
-8.80
-12.96
-16.78
-19.86
-22.02
-23.40
-24.48
-25.86
-28.07
-31.36
-35.59
-40.24
-44.49
-47.28
-47.53
-44.41
-37.57
-27.44
-15.18
-2.43
9.18
18.46
24.93
28.71
30.23
29.88
27.90
24.49
19.96
14.94
10.19
6.48
4.32
3.76
4.49
6.00
7.73
9.24
10.19
10.40
9.83
8.58
6.86
5.00
3.27
1.82
0.64
-0.50
-1.89
-3.80
-6.39
-9.67
-13.47
-17.59
-21.81
-25.92
-29.86
-33.75
-37.91
-42.75
-48.45
-54.71
-60.47
-64.15
-64.11
-59.30
-49.78
-36.80
-22.37
-8.56
3.20
12.35
19.07
23.86
27.09
28.92
29.41
28.69
27.08
25.05
22.99
21.13
19.55
18.19
17.03
16.10
15.39
14.92
14.64
14.42
14.11
13.56
12.63
11.23
9.33
6.94
4.08
0.76
-3.03
-7.28
-11.89
-16.64
-21.13
-24.88
-27.56
-29.11
-29.82
-30.41
-31.76
-34.68
-39.55
-46.02
-52.88
-58.39
-60.67
-58.36
-51.06
-39.39
-24.91
-9.53
4.91
17.07
26.32
32.65
36.48
38.39
38.86
38.20
36.58
34.15
31.14
27.94
24.99
22.68
21.23
20.61
20.59
20.77
20.68
19.97
18.47
16.25
13.48
10.35
6.95
3.08
-1.53
-7.10
-13.58
-20.44
-26.78
-31.60
-34.16
-34.29
-32.59
-30.34
-29.08
-30.16
-34.26
-41.13
-49.66
-58.08
-64.40
-66.80
-64.07
-55.91
-43.03
-27.16
-10.60
4.34
15.92
23.51
27.50
28.94
28.92
28.11
26.72
24.67
22.02
19.21
16.81
15.35
14.95
15.34
16.07
16.77
17.41
18.19
19.32
20.82
22.36
23.45
23.60
22.54
20.28
17.13
13.48
9.81
6.54
4.05
2.51
1.83
1.53
0.83
-1.24
-5.52
-12.32
-21.20
-30.96
-39.90
-46.27
-48.80
-47.06
-41.48
-33.21
-23.70
-14.38
-6.31
-0.11
3.96
5.94
6.06
4.72
2.48
0.09
-1.60
-1.74
0.34
5.01
12.08
20.89
30.42
39.56
47.37
53.19
56.71
57.95
57.11
54.53
50.66
46.03
41.11
36.31
31.81
27.63
23.58
19.30
14.40
8.48
1.16
-7.57
-17.37
-27.32
-36.10
-42.18
-44.19
-41.46
-34.15
-23.42
-11.11
0.73
10.42
16.96
20.22
20.75
19.49
17.37
15.03
12.84
10.86
9.07
7.35
5.64
3.89
2.06
0.14
-1.88
-3.98
-6.22
-8.71
-11.56
-14.83
-18.43
-22.04
-25.23
-27.64
-29.21
-30.21
-31.33
-33.34
-36.95
-42.50
-49.71
-57.73
-65.09
-70.02
-70.88
-66.72
-57.69
-45.20
-31.48
-18.98
-9.58
-4.04
-1.92
-1.91
-2.31
-1.63
0.98
5.58
11.43
17.38
22.34
25.72
27.76
29.32
31.29
33.99
36.76
38.18
36.65
31.29
22.25
10.74
-1.60
-13.36
-23.76
-32.60
-40.11
-46.51
-52.02
-56.94
-61.71
-66.93
-73.00
-79.80
-86.34
-90.82
-91.14
-85.49
-73.11
-54.66
-32.22
-8.71
12.92
30.65
43.83
53.11
60.01
65.96
71.81
77.52
82.42
85.75
87.05
86.46
84.55
81.98
79.26
76.61
74.05
71.57
69.11
66.63
63.97
60.84
56.95
52.21
46.91
41.60
36.93
33.32
30.79
28.97
27.32
25.51
23.43
21.35
19.55
18.07
16.56
14.29
10.31
3.88
-5.41
-17.32
-31.23
-46.30
-61.83
-77.53
-93.61
-110.63
-129.29
-149.80
-171.28
-191.35
-206.22
-211.57
-203.90
-182.00
-147.72
-105.63
-61.73
-21.62
10.88
34.39
49.45
57.55
60.19
58.34
52.50
43.07
30.65
16.14
0.62
-14.89
-29.52
-42.41
-52.61
-58.92
-60.00
-54.79
-42.96
-25.20
-3.36
19.86
41.38
58.27
68.11
69.51
62.47
48.73
31.75
16.06
6.05
4.58
11.87
25.55
41.64
56.07
66.04
70.48
69.67
64.35
55.02
41.87
25.29
6.52
-12.06
-27.35
-36.59
-38.53
-34.10
-26.34
-19.36
-16.77
-20.32
-29.28
-40.82
-51.21
-57.45
-58.43
-55.14
-49.95
-45.46
-43.39
-44.36
-47.87
-52.88
-58.15
-62.24
-63.60
-60.59
-51.82
-36.70
-15.79
9.04
35.07
59.32
79.32
93.66
102.25
106.25
107.70
108.65
110.47
113.38
116.55
118.76
119.13
117.49
114.39
110.71
107.17
104.21
102.08
100.81
100.47
100.85
101.40
101.19
99.01
93.78
84.84
72.14
56.30
38.39
19.60
0.96
-16.89
-33.71
-49.54
-64.52
-78.74
-92.32
-105.56
-118.93
-132.96
-147.82
-162.83
-176.43
-186.30
-190.14
-186.26
-174.11
-154.46
-129.11
-100.49
-71.21
-43.58
-19.24
0.87
16.57
28.25
36.69
42.86
47.73
52.24
57.21
63.22
70.38
78.27
85.92
92.12
95.90
96.85
95.31
92.12
88.30
84.54
81.01
77.34
72.92
67.18
59.85
51.07
41.22
30.71
19.81
8.48
-3.49
-16.28
-29.78
-43.53
-56.69
-68.24
-77.18
-82.73
-84.36
-81.90
-75.49
-65.59
-52.96
-38.47
-22.99
-7.20
8.38
23.36
37.36
49.89
60.45
68.64
74.22
77.21
77.85
76.59
74.02
70.82
67.72
65.33
63.98
63.68
64.09
64.72
65.12
64.98
64.14
62.50
60.02
56.58
52.15
46.76
40.57
33.84
26.87
19.97
13.45
7.56
2.51
-1.57
-4.74
-7.22
-9.49
-12.29
-16.40
-22.41
-30.40
-39.63
-48.60
-55.42
-58.39
-56.60
-50.24
-40.46
-28.92
-17.14
-6.19
3.45
11.64
18.26
23.10
25.92
26.66
25.62
23.38
20.75
18.37
16.64
15.57
14.95
14.45
13.85
13.11
12.30
11.52
10.82
10.13
9.32
8.28
6.95
5.37
3.53
1.45
-0.92
-3.60
-6.60
-9.84
-13.24
-16.69
-20.17
-23.76
-27.59
-31.81
-36.49
-41.47
-46.24
-50.01
-51.78
-50.68
-46.28
-38.73
-28.84
-17.72
-6.57
3.66
12.32
19.02
23.62
26.16
26.84
25.98
23.95
21.10
17.67
13.83
9.73
5.58
1.69
-1.53
-3.69
-4.59
-4.28
-3.11
-1.66
-0.58
-0.35
-1.24
-3.09
-5.47
-7.84
-9.75
-11.06
-11.95
-12.86
-14.28
-16.65
-20.25
-25.14
-31.04
-37.18
-42.38
-45.27
-44.73
-40.38
-32.80
-23.28
-13.33
-4.13
3.78
10.43
16.10
20.82
24.34
26.22
26.20
24.39
21.38
17.97
14.80
12.22
10.19
8.46
6.79
5.17
3.79
2.87
2.52
2.58
2.73
2.59
1.94
0.84
-0.48
-1.85
-3.15
-4.57
-6.44
-9.20
-13.18
-18.52
-25.05
-32.28
-39.42
-45.39
-49.07
-49.51
-46.28
-39.61
-30.41
-19.97
-9.59
-0.23
7.66
14.07
19.24
23.37
26.59
28.83
29.98
30.05
29.14
27.44
25.20
22.66
19.98
17.23
14.45
11.65
8.89
6.30
4.04
2.26
1.02
0.26
-0.23
-0.69
-1.38
-2.47
-4.09
-6.36
-9.49
-13.73
-19.20
-25.79
-32.97
-39.74
-44.77
-46.78
-44.92
-39.13
-30.27
-19.75
-9.15
0.32
8.10
14.23
19.00
22.67
25.34
26.97
27.59
27.43
26.88
26.30
25.81
25.23
24.30
22.71
20.49
17.89
15.32
13.19
11.70
10.87
10.53
10.39
10.08
9.21
7.48
4.74
1.11
-3.01
-7.13
-10.81
-13.96
-16.89
-20.26
-24.66
-30.34
-36.85
-43.04
-47.42
-48.61
-45.85
-39.31
-29.84
-18.79
-7.43
3.30
12.88
21.14
28.02
33.54
37.72
40.66
42.58
43.66
44.02
43.65
42.54
40.72
38.31
35.54
32.64
29.78
27.13
24.83
22.99
21.69
20.83
20.10
19.01
17.11
14.20
10.41
6.11
1.82
-2.04
-5.27
-7.92
-10.19
-12.50
-15.29
-19.01
-23.96
-30.16
-37.26
-44.38
-50.31
-53.64
-53.25
-48.64
-40.17
-29.02
-16.79
-5.03
5.21
13.46
19.84
24.67
28.28
30.83
32.39
32.98
32.69
31.68
30.23
28.61
27.05
25.74
24.73
23.94
23.18
22.27
21.08
19.60
17.89
15.98
13.81
11.24
8.11
4.40
0.19
-4.23
-8.52
-12.33
-15.45
-17.86
-19.72
-21.36
-23.12
-25.37
-28.40
-32.47
-37.63
-43.62
-49.76
-54.96
-57.93
-57.53
-53.34
-45.70
-35.65
-24.61
-13.88
-4.30
3.76
10.34
15.60
19.69
22.62
24.32
24.66
23.66
21.55
18.75
15.80
13.23
11.40
10.43
10.27
10.71
11.53
12.60
13.82
15.13
16.37
17.31
17.68
17.26
16.03
14.19
12.00
9.66
7.13
4.15
0.46
-4.08
-9.24
-14.61
-19.81
-24.70
-29.36
-34.02
-38.64
-42.84
-45.81
-46.69
-44.83
-40.16
-33.16
-24.76
-16.02
-7.80
-0.68
5.23
10.09
14.27
18.18
22.04
25.83
29.28
31.90
33.20
32.89
30.96
27.71
23.62
19.18
14.82
10.91
7.84
5.92
5.41
6.38
8.59
11.60
14.81
17.64
19.58
20.21
19.21
16.42
11.97
6.33
0.34
-5.15
-9.45
-12.36
-14.06
-15.07
-16.00
-17.40
-19.73
-23.30
-28.08
-33.50
-38.43
-41.43
-41.27
-37.54
-30.83
-22.52
-14.14
-6.81
-0.91
3.77
7.58
10.71
13.04
14.35
14.45
13.37
11.34
8.75
6.01
3.54
1.68
0.58
0.22
0.32
0.52
0.51
0.26
-0.15
-0.58
-1.07
-1.88
-3.27
-5.33
-7.85
-10.34
-12.33
-13.60
-14.27
-14.79
-15.65
-17.19
-19.48
-22.46
-26.06
-30.25
-34.78
-39.12
-42.32
-43.29
-41.09
-35.47
-26.97
-16.78
-6.39
2.86
10.17
15.28
18.30
19.60
19.48
18.30
16.39
14.12
11.81
9.69
7.81
6.11
4.46
2.80
1.21
-0.19
-1.23
-1.87
-2.24
-2.57
-3.16
-4.19
-5.73
-7.69
-9.93
-12.29
-14.64
-16.83
-18.71
-20.23
-21.51
-22.97
-25.17
-28.51
-32.92
-37.54
-40.95
-41.65
-38.66
-32.00
-22.67
-12.22
-2.20
6.39
13.19
18.31
21.99
24.30
25.12
24.36
22.10
18.79
15.07
11.64
8.91
6.97
5.60
4.48
3.38
2.35
1.63
1.47
1.96
2.79
3.37
3.09
1.58
-1.14
-4.64
-8.32
-11.71
-14.62
-17.23
-19.95
-23.26
-27.40
-32.35
-37.69
-42.61
-46.04
-46.88
-44.28
-37.98
-28.45
-16.86
-4.68
6.67
16.23
23.58
28.80
32.19
34.07
34.63
33.99
32.30
29.77
26.70
23.37
19.98
16.58
13.22
9.94
6.95
4.58
3.14
2.78
3.29
4.17
4.74
4.40
2.81
-0.00
-3.75
-8.02
-12.49
-16.92
-21.23
-25.42
-29.58
-33.87
-38.32
-42.81
-46.77
-49.28
-49.26
-45.83
-38.73
-28.42
-16.04
-3.03
9.22
19.68
27.76
33.28
36.33
37.25
36.54
34.76
32.49
30.12
27.76
25.29
22.45
19.10
15.33
11.52
8.12
5.53
3.88
2.98
2.41
1.70
0.50
-1.40
-4.03
-7.30
-10.99
-14.81
-18.45
-21.67
-24.51
-27.29
-30.57
-34.86
-40.30
-46.38
-51.93
-55.40
-55.38
-51.13
-42.85
-31.57
-18.80
-5.91
6.07
16.60
25.48
32.67
38.13
41.73
43.33
42.88
40.59
36.95
32.65
28.47
25.04
22.67
21.29
20.54
19.97
19.29
18.47
17.58
16.70
15.66
14.04
11.40
7.55
2.70
-2.50
-7.36
-11.40
-14.61
-17.43
-20.53
-24.49
-29.54
-35.52
-41.86
-47.60
-51.55
-52.53
-49.75
-43.12
-33.39
-21.96
-10.30
0.48
9.85
17.77
24.37
29.63
33.27
35.00
34.72
32.75
29.81
26.75
24.31
22.90
22.45
22.56
22.71
22.45
21.52
19.95
17.86
15.47
12.92
10.19
7.18
3.67
-0.55
-5.53
-11.22
-17.27
-23.26
-28.81
-33.79
-38.38
-43.01
-48.25
-54.56
-62.10
-70.53
-78.92
-85.78
-89.37
-88.19
-81.53
-69.80
-54.37
-37.13
-19.89
-3.85
10.45
22.89
33.32
41.40
46.58
48.42
46.90
42.62
36.71
30.48
25.21
21.66
20.14
20.36
21.75
23.72
25.74
27.58
29.10
30.17
30.55
29.95
28.14
25.14
21.22
16.86
12.58
8.60
4.79
0.67
-4.33
-10.60
-18.08
-26.21
-34.10
-40.78
-45.41
-47.37
-46.40
-42.34
-35.22
-25.30
-13.02
0.81
15.19
28.90
40.76
49.76
55.27
57.12
55.65
51.63
46.13
40.29
35.10
31.21
28.88
27.92
27.92
28.41
28.96
29.33
29.42
29.31
29.10
28.89
28.69
28.35
27.67
26.46
24.58
22.10
19.18
16.00
12.72
9.28
5.50
1.10
-4.16
-10.37
-17.40
-24.95
-32.62
-40.09
-47.17
-53.77
-59.75
-64.90
-68.70
-70.52
-69.75
-66.08
-59.59
-50.75
-40.22
-28.72
-17.03
-5.97
3.55
10.67
14.78
15.72
13.85
9.93
4.77
-0.98
-6.89
-12.73
-18.27
-23.19
-27.13
-29.84
-31.32
-31.77
-31.48
-30.62
-29.23
-27.24
-24.66
-21.78
-19.14
-17.48
-17.46
-19.48
-23.50
-29.03
-35.13
-40.50
-43.67
-43.34
-38.75
-29.92
-17.76
-3.83
10.13
22.69
33.11
41.27
47.56
52.43
56.16
58.83
60.45
61.01
60.70
59.66
57.98
55.49
51.93
47.18
41.52
35.63
30.43
26.74
24.81
24.35
24.55
24.48
23.36
20.83
16.99
12.36
7.66
3.59
0.57
-1.38
-2.79
-4.54
-7.41
-11.78
-17.22
-22.58
-26.31
-27.09
-24.26
-18.07
-9.51
0.12
9.74
18.70
26.79
33.97
40.12
44.98
48.27
49.91
50.12
49.34
47.96
46.11
43.64
40.29
35.89
30.54
24.59
18.46
12.55
7.15
2.41
-1.55
-4.59
-6.52
-7.21
-6.65
-5.01
-2.78
-0.71
0.32
-0.46
-3.54
-8.86
-15.90
-23.60
-30.71
-35.99
-38.42
-37.39
-32.93
-25.64
-16.65
-7.30
1.22
8.14
13.29
16.89
19.37
21.01
21.84
21.73
20.49
18.11
14.74
10.74
6.52
2.49
-1.05
-3.94
-6.12
-7.70
-8.84
-9.72
-10.56
-11.43
-12.27
-12.86
-12.95
-12.34
-11.08
-9.40
-7.73
-6.60
-6.53
-7.96
-11.15
-15.94
-21.59
-26.79
-29.91
-29.49
-24.87
-16.49
-5.77
5.42
15.40
23.24
28.80
32.51
34.86
36.14
36.42
35.64
33.86
31.20
27.90
24.10
19.85
15.18
10.28
5.55
1.58
-1.21
-2.69
-3.27
-3.68
-4.70
-6.83
-10.13
-14.35
-19.04
-23.85
-28.47
-32.62
-36.07
-38.67
-40.51
-41.80
-42.74
-43.27
-42.85
-40.58
-35.60
-27.51
-16.75
-4.50
7.62
18.11
26.03
31.18
33.86
34.66
34.10
32.68
30.76
28.66
26.54
24.35
21.82
18.53
14.28
9.20
3.84
-1.06
-4.82
-7.11
-8.06
-8.03
-7.66
-7.47
-7.91
-9.22
-11.41
-14.27
-17.45
-20.63
-23.64
-26.49
-29.21
-31.61
-33.16
-33.07
-30.64
-25.58
-18.29
-9.73
-1.14
6.51
12.67
17.35
20.94
23.87
26.54
29.08
31.51
33.69
35.43
36.45
36.42
35.05
32.14
27.72
22.08
15.77
9.56
4.21
0.38
-1.66
-2.04
-1.33
-0.38
-0.14
-1.33
-4.22
-8.54
-13.50
-18.10
-21.37
-22.95
-23.03
-22.41
-22.24
-23.47
-26.58
-31.20
-36.23
-40.01
-40.98
-38.09
-31.24
-21.37
-10.14
0.59
9.39
15.57
19.17
20.66
20.74
19.94
18.67
17.17
15.60
14.04
12.44
10.79
9.06
7.32
5.63
3.95
2.16
0.01
-2.73
-6.07
-9.79
-13.39
-16.39
-18.37
-19.26
-19.14
-18.37
-17.42
-16.83
-17.17
-18.97
-22.52
-27.73
-33.94
-40.03
-44.65
-46.62
-45.24
-40.55
-33.25
-24.39
-15.05
-6.03
2.25
9.68
16.11
21.35
24.99
26.64
26.09
23.51
19.40
14.53
9.70
5.56
2.52
0.67
-0.15
-0.36
-0.61
-1.59
-3.76
-7.17
-11.32
-15.25
-17.81
-18.09
-15.74
-11.11
-5.17
0.67
5.01
6.81
5.70
2.02
-3.12
-8.22
-11.77
-12.58
-10.08
-4.45
3.46
12.43
21.06
28.19
33.04
35.48
35.91
35.10
33.84
32.73
32.02
31.64
31.35
30.93
30.20
28.98
27.18
24.77
21.91
18.89
16.14
13.98
12.50
11.42
10.26
8.56
6.15
3.19
0.12
-2.60
-4.70
-6.17
-7.29
-8.45
-9.99
-12.11
-14.88
-18.26
-22.08
-26.16
-30.12
-33.39
-35.26
-35.07
-32.48
-27.63
-21.15
-13.97
-7.01
-0.91
3.99
7.67
10.30
12.01
12.86
12.75
11.43
8.61
4.16
-1.67
-8.15
-14.18
-18.57
-20.42
-19.50
-16.27
-11.83
-7.44
-4.26
-2.96
-3.62
-5.78
-8.68
-11.51
-13.74
-15.22
-16.13
-16.85
-17.88
-19.66
-22.53
-26.56
-31.42
-36.20
-39.51
-39.88
-36.26
-28.53
-17.62
-5.18
6.99
17.51
25.75
31.69
35.62
37.85
38.61
38.18
36.87
35.09
33.05
30.65
27.48
23.03
17.05
9.82
2.19
-4.79
-10.18
-13.55
-15.14
-15.72
-16.24
-17.46
-19.74
-22.96
-26.84
-31.06
-35.67
-40.97
-47.30
-54.81
-63.22
-71.95
-80.33
-87.93
-94.69
-100.74
-106.22
-110.90
-114.16
-114.89
-111.73
-103.25
-88.38
-66.87
-39.64
-8.92
21.82
48.39
66.73
73.76
68.48
52.55
30.40
8.30
-7.41
-12.45
-6.05
8.90
27.30
44.01
55.85
62.24
64.48
64.12
61.83
57.08
48.91
37.00
22.21
6.38
-8.51
-21.14
-31.19
-39.09
-45.51
-50.99
-55.79
-59.98
-63.69
-67.01
-69.72
-71.02
-69.39
-62.90
-49.99
-30.24
-4.85
23.58
51.71
76.48
95.65
108.02
113.01
110.63
101.48
87.13
70.03
53.05
38.29
26.33
16.31
7.12
-1.17
-6.77
-7.03
-0.32
12.48
28.03
42.07
51.78
56.96
59.71
62.44
65.97
68.77
67.98
61.29
48.49
31.76
14.60
0.33
-9.14
-13.50
-13.52
-10.39
-5.07
1.85
9.95
18.67
27.22
34.54
39.69
42.05
41.52
38.52
33.82
28.42
23.30
19.25
16.65
15.34
14.82
14.43
13.78
12.98
12.59
13.24
15.12
17.66
19.67
19.78
17.17
11.95
5.16
-1.71
-7.37
-11.23
-13.52
-15.03
-16.49
-18.15
-19.43
-19.04
-15.54
-8.00
3.63
18.52
35.33
52.84
70.42
87.80
104.61
120.16
134.09
147.32
162.46
182.80
210.05
242.27
273.32
294.66
298.88
282.81
248.67
202.39
150.59
97.85
46.08
-4.51
-53.56
-99.51
-140.18
-174.13
-202.02
-226.83
-253.24
-286.17
-328.80
-380.82
-437.58
-490.82
-530.98
-550.44
-546.35
-521.57
-483.20
-439.56
-396.93
-357.96
-322.15
-287.66
-253.19
-218.77
-185.22
-152.95
-121.25
-88.63
-54.07
-18.10
16.99
47.85
71.61
87.18
95.73
100.00
103.03
106.79
111.54
115.99
118.22
116.80
111.64
104.14
96.70
91.66
90.41
92.77
97.13
101.27
103.32
102.52
99.34
94.97
90.57
86.65
83.02
79.01
73.98
67.67
60.33
52.50
44.90
38.10
32.30
27.31
22.63
17.76
12.55
7.38
3.08
0.60
0.62
3.26
8.18
14.80
22.59
31.03
39.57
47.29
52.99
55.37
53.60
47.71
38.76
28.57
19.09
11.76
7.09
4.80
4.23
4.77
6.24
8.65
11.95
15.72
19.18
21.52
22.27
21.58
19.97
17.96
15.66
12.77
8.89
3.96
-1.46
-6.30
-9.53
-10.58
-9.58
-7.27
-4.60
-2.38
-1.13
-1.05
-2.35
-5.23
-10.01
-16.99
-26.27
-37.64
-50.56
-64.29
-77.99
-91.01
-102.88
-113.41
-122.62
-130.72
-138.10
-145.41
-153.57
-163.56
-176.04
-190.77
-206.35
-220.47
-230.61
-235.02
-233.36
-226.81
-217.39
-206.99
-196.64
-186.42
-175.84
-164.52
-152.65
-140.80
-129.50
-118.70
-107.76
-95.78
-82.40
-68.19
-54.72
-44.00
-37.58
-35.71
-37.07
-39.04
-38.67
-33.70
-23.25
-7.86
11.23
32.99
57.47
85.94
120.24
162.03
212.13
270.26
335.07
403.82
471.91
532.78
578.96
604.39
607.02
590.29
562.19
532.13
507.13
489.35
476.35
463.60
447.49
427.13
404.01
380.11
356.09
330.84
302.40
269.50
232.53
193.38
154.57
118.04
84.55
53.86
25.31
-1.49
-26.26
-48.08
-65.78
-78.40
-85.62
-87.96
-86.70
-83.53
-79.99
-76.95
-74.42
-71.61
-67.53
-61.69
-54.69
-48.21
-44.53
-45.57
-51.98
-62.72
-75.37
-87.00
-95.22
-99.03
-98.94
-96.56
-93.68
-91.51
-90.27
-89.46
-88.45
-87.14
-86.12
-86.32
-88.41
-92.27
-96.85
-100.67
-102.38
-101.38
-97.83
-92.26
-85.01
-75.71
-63.31
-46.37
-23.60
5.58
40.54
79.22
118.16
153.02
179.56
194.93
198.56
192.44
180.34
166.43
153.71
143.12
133.49
122.28
106.70
84.89
56.91
25.15
-6.00
-31.38
-46.88
-51.21
-46.47
-37.43
-29.61
-27.11
-31.32
-40.75
-51.83
-59.96
-60.53
-49.62
-25.02
12.71
59.43
107.61
148.20
173.82
181.79
175.35
162.18
150.92
147.32
152.08
161.24
168.56
168.53
158.30
137.65
108.03
71.52
30.93
-9.59
-44.53
-68.52
-79.07
-78.91
-76.33
-82.50
-106.78
-152.34
-213.98
-279.43
-333.47
-363.30
-363.02
-335.52
-291.03
-243.12
-203.63
-178.67
-167.49
-164.20
-161.51
-154.67
-143.00
-128.84
-115.12
-102.97
-91.21
-77.50
-60.41
-40.72
-21.36
-5.95
3.04
5.36
3.04
-0.51
-1.96
0.67
7.36
16.39
25.21
31.75
35.20
36.30
36.61
37.47
39.04
40.19
39.16
34.77
27.24
18.34
10.57
6.00
5.24
7.33
10.28
12.17
11.85
9.34
5.43
1.20
-2.41
-4.93
-6.29
-6.83
-7.21
-8.32
-11.05
-15.98
-23.02
-31.30
-39.31
-45.24
-47.66
-45.93
-40.44
-32.50
-23.85
-16.02
-9.88
-5.45
-2.17
0.73
3.83
7.34
11.08
14.68
17.81
20.15
21.37
21.27
19.73
16.96
13.53
10.41
8.65
9.08
11.96
16.83
22.59
27.79
31.13
31.75
29.46
24.66
18.13
10.94
4.15
-1.23
-4.49
-5.37
-4.29
-2.25
-0.58
-0.44
-2.44
-6.36
-11.31
-16.14
-19.85
-21.91
-22.26
-21.23
-19.20
-16.54
-13.46
-10.03
-6.38
-2.68
0.82
3.87
6.37
8.33
9.80
10.77
11.08
10.53
8.99
6.61
3.90
1.55
0.11
-0.22
0.31
1.17
1.82
2.03
1.90
1.79
2.04
2.81
3.92
4.97
5.48
5.12
3.89
2.06
0.06
-1.75
-3.29
-4.71
-6.25
-8.06
-10.10
-12.19
-14.15
-15.87
-17.37
-18.64
-19.62
-20.05
-19.69
-18.39
-16.20
-13.34
-10.11
-6.80
-3.62
-0.80
1.45
2.92
3.44
3.00
1.77
0.06
-1.78
-3.43
-4.73
-5.61
-6.05
-6.02
-5.47
-4.42
-3.02
-1.65
-0.75
-0.73
-1.78
-3.80
-6.42
-9.14
-11.53
-13.27
-14.25
-14.50
-14.22
-13.69
-13.21
-13.07
-13.44
-14.25
-15.21
-15.91
-15.92
-14.91
-12.75
-9.59
-5.70
-1.44
2.77
6.65
9.98
12.73
14.92
16.60
17.77
18.35
18.24
17.44
16.10
14.46
12.80
11.37
10.24
9.40
8.81
8.43
8.27
8.35
8.58
8.74
8.56
7.72
6.07
3.60
0.44
-3.22
-7.06
-10.79
-14.12
-16.96
-19.41
-21.77
-24.37
-27.30
-30.34
-32.98
-34.62
-34.83
-33.46
-30.61
-26.45
-21.17
-14.95
-8.09
-1.10
5.37
10.71
14.62
17.12
18.51
19.12
19.17
18.67
17.59
15.95
13.99
12.11
10.70
10.03
10.09
10.70
11.55
12.44
13.33
14.29
15.37
16.45
17.18
17.08
15.75
13.06
9.28
4.90
0.45
-3.73
-7.65
-11.53
-15.58
-19.84
-24.01
-27.57
-29.97
-30.81
-29.94
-27.45
-23.58
-18.62
-12.98
-7.14
-1.70
2.78
5.89
7.58
8.11
7.99
7.74
7.64
7.65
7.59
7.26
6.53
5.49
4.25
2.96
1.73
0.67
-0.05
-0.27
-0.01
0.53
1.01
1.05
0.49
-0.59
-1.98
-3.39
-4.66
-5.79
-6.90
-8.12
-9.52
-11.01
-12.53
-14.10
-15.65
-17.09
-18.11
-18.52
-17.92
-16.11
-12.94
-8.52
-3.21
2.52
8.07
13.01
16.58
18.61
19.05
18.42
17.27
16.02
15.04
14.51
14.67
15.20
16.55
19.01
23.09
29.02
37.19
48.29
63.23
83.06
107.75
137.73
167.72
191.94
205.17
204.66
190.50
164.06
133.13
98.94
63.72
31.69
8.12
-3.92
-6.19
-3.32
-1.74
-6.57
-20.10
-39.43
-58.53
-70.21
-68.90
-52.08
-20.85
20.06
63.32
99.87
122.41
126.75
113.60
88.36
59.78
37.13
26.79
30.35
44.05
61.44
75.80
82.62
80.41
70.22
53.93
32.57
5.84
-27.40
-67.12
-111.16
-155.12
-193.71
-222.60
-240.12
-247.78
-249.26
-248.61
-248.09
-247.61
-245.27
-238.98
-227.98
-213.21
-196.77
-180.44
-164.79
-149.06
-131.90
-112.34
-90.37
-66.87
-43.40
-21.78
-3.64
9.68
17.60
20.30
18.67
13.90
6.90
-1.99
-12.92
-25.80
-39.66
-52.38
-61.36
-64.60
-61.73
-54.31
-45.18
-37.27
-32.58
-31.68
-33.97
-38.21
-43.00
-47.08
-49.45
-49.61
-47.92
-45.79
-45.49
-49.15
-57.74
-70.23
-83.77
-94.96
-101.23
-101.93
-98.17
-91.92
-84.80
-77.49
-69.81
-61.51
-52.85
-44.62
-37.54
-31.62
-25.85
-18.72
-9.05
3.19
16.83
30.07
41.43
50.36
57.39
63.56
69.80
76.41
82.96
88.73
93.07
95.85
97.43
98.51
99.80
101.67
104.01
106.21
107.44
106.83
103.80
98.18
90.25
80.65
70.34
60.47
52.22
46.61
44.09
44.35
46.32
48.45
49.29
48.05
44.86
40.55
36.15
32.30
28.89
25.24
20.54
14.42
7.15
-0.36
-7.10
-12.40
-16.31
-19.41
-22.45
-25.90
-29.54
-32.73
-34.65
-34.90
-33.68
-31.75
-29.97
-28.96
-28.91
-29.64
-30.96
-32.75
-34.94
-37.17
-38.71
-38.48
-35.49
-29.38
-20.66
-10.67
-1.03
6.98
12.74
16.39
18.41
19.25
19.09
17.92
15.79
13.01
10.20
7.94
6.62
6.17
6.18
6.16
5.81
5.09
4.26
3.59
3.27
3.29
3.47
3.54
3.18
2.07
-0.03
-3.25
-7.45
-12.31
-17.30
-21.81
-25.29
-27.25
-27.32
-25.26
-21.10
-15.19
-8.21
-1.10
5.30
10.43
14.12
16.50
17.83
18.32
18.13
17.44
16.45
15.47
14.71
14.26
14.07
14.05
14.13
14.31
14.56
14.81
14.87
14.60
13.97
13.06
11.99
10.86
9.68
8.35
6.73
4.68
2.00
-1.44
-5.63
-10.22
-14.54
-17.71
-18.94
-17.85
-14.65
-10.00
-4.70
0.64
5.74
10.51
14.86
18.55
21.27
22.81
23.23
22.84
22.06
21.28
20.64
20.10
19.49
18.71
17.76
16.69
15.60
14.50
13.32
11.95
10.26
8.16
5.67
2.85
-0.08
-2.87
-5.19
-6.87
-7.88
-8.55
-9.41
-11.04
-13.79
-17.56
-21.66
-25.12
-26.88
-26.28
-23.16
-17.96
-11.46
-4.56
2.00
7.72
12.37
15.94
18.49
20.15
21.06
21.36
21.19
20.74
20.16
19.59
19.09
18.68
18.36
18.06
17.74
17.35
16.90
16.39
15.89
15.42
14.95
14.38
13.58
12.40
10.77
8.71
6.32
3.79
1.32
-0.91
-2.80
-4.43
-6.05
-8.00
-10.65
-14.13
-18.31
-22.75
-26.90
-30.13
-31.92
-31.86
-29.77
-25.69
-19.96
-13.19
-6.19
0.28
5.68
9.80
12.79
14.99
16.66
17.94
18.83
19.23
19.08
18.39
17.28
15.98
14.70
13.64
12.96
12.69
12.76
13.02
13.35
13.65
13.89
14.07
14.08
13.74
12.87
11.34
9.26
6.87
4.49
2.35
0.46
-1.28
-3.04
-4.91
-6.84
-8.75
-10.61
-12.49
-14.49
-16.68
-18.95
-21.07
-22.70
-23.50
-23.22
-21.75
-19.07
-15.29
-10.67
-5.64
-0.70
3.73
7.34
10.15
12.28
13.91
15.13
15.93
16.28
16.21
15.93
15.63
15.46
15.42
15.42
15.38
15.29
15.18
15.10
14.93
14.56
13.89
12.96
11.94
11.02
10.26
9.58
8.73
7.53
5.95
4.17
2.51
1.24
0.42
-0.13
-0.72
-1.69
-3.22
-5.32
-7.91
-10.85
-14.01
-17.18
-20.00
-22.00
-22.70
-21.87
-19.60
-16.26
-12.36
-8.36
-4.55
-1.06
2.03
4.67
6.87
8.65
10.13
11.36
12.37
13.07
13.35
13.18
12.67
12.03
11.42
10.91
10.45
9.94
9.31
8.60
7.91
7.38
7.08
6.95
6.85
6.57
6.03
5.26
4.41
3.71
3.35
3.38
3.75
4.39
5.14
5.87
6.38
6.45
5.90
4.61
2.62
0.15
-2.49
-5.11
-7.63
-10.10
-12.58
-14.95
-16.92
-18.07
-18.14
-17.06
-15.03
-12.38
-9.45
-6.49
-3.65
-1.12
0.97
2.51
3.43
3.83
3.95
4.02
4.22
4.63
5.19
5.82
6.41
6.90
7.30
7.66
8.00
8.37
8.82
9.37
10.08
10.98
12.06
13.14
13.92
14.05
13.31
11.71
9.56
7.36
5.57
4.42
3.81
3.38
2.75
1.64
0.08
-1.71
-3.46
-5.03
-6.51
-8.15
-10.18
-12.67
-15.50
-18.33
-20.80
-22.51
-23.11
-22.31
-19.97
-16.13
-11.17
-5.67
-0.33
4.27
7.80
10.15
11.39
11.64
11.02
9.75
8.10
6.44
5.11
4.27
3.98
4.13
4.60
5.33
6.27
7.33
8.34
9.04
9.29
9.11
8.69
8.29
8.08
8.05
8.10
8.13
8.00
7.71
7.18
6.34
5.07
3.33
1.24
-0.95
-2.86
-4.25
-4.99
-5.19
-5.12
-5.09
-5.43
-6.37
-7.91
-9.89
-11.94
-13.57
-14.40
-14.26
-13.18
-11.41
-9.30
-7.17
-5.25
-3.70
-2.55
-1.70
-1.00
-0.20
0.83
2.10
3.41
4.52
5.25
5.59
5.67
5.70
5.84
6.14
6.61
7.16
7.75
8.28
8.68
8.84
8.76
8.46
8.05
7.65
7.29
6.89
6.30
5.36
4.01
2.30
0.37
-1.55
-3.19
-4.31
-4.83
-4.82
-4.60
-4.61
-5.24
-6.63
-8.65
-10.92
-12.99
-14.56
-15.50
-15.85
-15.66
-14.94
-13.57
-11.54
-8.93
-6.01
-3.12
-0.54
1.61
3.35
4.75
5.84
6.57
6.86
6.65
6.05
5.26
4.50
3.96
3.67
3.58
3.56
3.56
3.56
3.52
3.44
3.26
2.94
2.45
1.88
1.31
0.85
0.49
0.18
-0.19
-0.69
-1.32
-2.04
-2.78
-3.61
-4.64
-6.00
-7.76
-9.90
-12.27
-14.65
-16.81
-18.48
-19.37
-19.21
-17.86
-15.34
-11.96
-8.21
-4.60
-1.51
0.94
2.83
4.35
5.56
6.40
6.75
6.58
5.99
5.21
4.49
4.00
3.74
3.60
3.44
3.17
2.83
2.51
2.33
2.31
2.37
2.36
2.13
1.60
0.78
-0.23
-1.31
-2.34
-3.23
-3.95
-4.48
-4.89
-5.27
-5.75
-6.49
-7.59
-9.09
-10.99
-13.20
-15.53
-17.63
-19.05
-19.34
-18.22
-15.77
-12.43
-8.86
-5.68
-3.22
-1.44
-0.04
1.38
3.11
5.21
7.50
9.68
11.38
12.32
12.38
11.65
10.39
8.99
7.81
7.08
6.77
6.70
6.64
6.45
6.17
5.87
5.67
5.50
5.21
4.57
3.43
1.80
-0.14
-2.08
-3.80
-5.21
-6.43
-7.65
-9.07
-10.82
-12.89
-15.27
-17.92
-20.71
-23.42
-25.69
-27.07
-27.20
-25.95
-23.47
-20.16
-16.50
-12.90
-9.66
-6.94
-4.77
-3.12
-1.83
-0.66
0.66
2.31
4.26
6.21
7.77
8.58
8.51
7.66
6.35
4.93
3.68
2.78
2.29
2.22
2.54
3.15
3.90
4.51
4.63
3.99
2.48
0.22
-2.43
-5.06
-7.39
-9.32
-11.00
-12.69
-14.65
-16.99
-19.62
-22.22
-24.29
-25.33
-24.99
-23.20
-20.22
-16.54
-12.64
-8.88
-5.33
-1.91
1.45
4.71
7.66
10.10
11.98
13.45
14.70
15.79
16.63
16.97
16.73
15.99
15.09
14.35
13.94
13.83
13.90
14.01
14.15
14.32
14.48
14.49
14.20
13.53
12.51
11.25
9.89
8.52
7.26
6.14
5.17
4.23
3.08
1.49
-0.69
-3.36
-6.28
-9.18
-11.84
-14.15
-15.91
-16.78
-16.31
-14.24
-10.66
-6.16
-1.48
2.70
6.10
8.78
10.98
12.85
14.34
15.35
15.82
15.84
15.60
15.31
15.04
14.83
14.68
14.66
14.82
15.18
15.59
15.82
15.67
15.09
14.25
13.40
12.79
12.51
12.39
12.16
11.52
10.29
8.46
6.21
3.74
1.27
-1.05
-3.09
-4.85
-6.42
-8.00
-9.88
-12.29
-15.26
-18.48
-21.35
-23.18
-23.48
-22.17
-19.61
-16.38
-12.99
-9.72
-6.55
-3.33
-0.00
3.28
6.21
8.49
9.95
10.66
10.86
10.83
10.78
10.79
10.87
10.96
11.04
11.13
11.26
11.42
11.55
11.48
11.02
10.02
8.53
6.76
5.02
3.57
2.49
1.65
0.76
-0.40
-1.93
-3.79
-5.88
-8.22
-10.94
-14.21
-17.98
-21.82
-24.99
-26.75
-26.71
-24.90
-21.86
-18.23
-14.50
-10.86
-7.26
-3.61
-0.00
3.33
6.07
7.99
9.11
9.62
9.82
10.01
10.37
10.95
11.65
12.32
12.76
12.85
12.59
12.06
11.38
10.65
9.94
9.33
8.90
8.64
8.41
7.98
7.05
5.47
3.34
0.97
-1.32
-3.35
-5.20
-7.17
-9.58
-12.55
-15.94
-19.33
-22.13
-23.81
-23.95
-22.38
-19.25
-14.97
-10.24
-5.79
-2.21
0.24
1.69
2.53
3.20
3.99
5.00
6.13
7.31
8.51
9.75
11.03
12.21
13.03
13.33
13.19
12.95
13.05
13.73
14.82
15.89
16.34
15.82
14.35
12.33
10.27
8.57
7.32
6.31
5.22
3.78
1.94
-0.16
-2.34
-4.54
-6.77
-9.16
-11.76
-14.50
-17.24
-19.86
-22.29
-24.51
-26.48
-27.97
-28.58
-27.91
-25.65
-21.86
-16.96
-11.61
-6.49
-2.09
1.42
4.16
6.41
8.47
10.51
12.52
14.36
15.84
16.84
17.34
17.41
17.16
16.74
16.29
15.92
15.76
15.85
16.19
16.66
17.10
17.32
17.20
16.69
15.79
14.51
12.82
10.74
8.30
5.59
2.76
-0.04
-2.73
-5.28
-7.77
-10.31
-13.05
-16.05
-19.35
-22.88
-26.50
-29.99
-32.95
-34.86
-35.30
-34.00
-31.06
-26.93
-22.19
-17.40
-12.88
-8.66
-4.58
-0.48
3.67
7.68
11.30
14.20
16.13
17.04
17.11
16.78
16.59
16.99
18.07
19.51
20.75
21.29
21.06
20.36
19.71
19.52
19.75
20.01
19.81
18.93
17.47
15.82
14.29
12.97
11.72
10.29
8.53
6.46
4.18
1.79
-0.70
-3.31
-6.00
-8.63
-11.02
-13.04
-14.77
-16.47
-18.46
-20.94
-23.82
-26.67
-28.90
-29.89
-29.26
-27.02
-23.52
-19.40
-15.27
-11.54
-8.33
-5.48
-2.77
0.00
2.86
5.69
8.28
10.42
11.97
12.85
13.07
12.79
12.18
11.51
11.04
10.93
11.21
11.80
12.57
13.39
14.20
14.90
15.39
15.58
15.36
14.77
13.92
12.99
12.06
11.05
9.77
8.02
5.79
3.28
0.85
-1.17
-2.61
-3.60
-4.44
-5.50
-7.07
-9.32
-12.22
-15.58
-19.09
-22.34
-24.89
-26.31
-26.33
-24.87
-22.06
-18.24
-13.91
-9.54
-5.46
-1.83
1.37
4.26
6.91
9.28
11.25
12.70
13.58
13.98
14.00
13.78
13.39
12.88
12.30
11.70
11.06
10.39
9.67
8.99
8.47
8.25
8.33
8.52
8.49
7.97
6.79
5.09
3.18
1.41
-0.02
-1.11
-2.01
-2.99
-4.23
-5.79
-7.59
-9.49
-11.36
-13.12
-14.86
-16.69
-18.69
-20.78
-22.72
-24.18
-24.83
-24.49
-23.16
-20.96
-18.09
-14.79
-11.20
-7.50
-3.83
-0.33
2.83
5.55
7.73
9.34
10.33
10.76
10.72
10.38
9.98
9.72
9.76
10.09
10.62
11.22
11.78
12.25
12.70
13.16
13.65
14.05
14.21
14.04
13.56
12.89
12.16
11.42
10.55
9.35
7.63
5.35
2.68
-0.07
-2.62
-4.81
-6.65
-8.35
-10.10
-12.11
-14.46
-17.13
-20.01
-22.90
-25.57
-27.75
-29.19
-29.68
-29.08
-27.36
-24.56
-20.86
-16.48
-11.71
-6.89
-2.36
1.60
4.80
7.19
8.90
10.11
11.06
11.90
12.68
13.35
13.84
14.04
13.95
13.64
13.26
12.99
13.01
13.39
14.03
14.70
15.11
15.09
14.66
13.98
13.25
12.52
11.64
10.42
8.75
6.69
4.50
2.39
0.50
-1.20
-2.78
-4.32
-5.82
-7.24
-8.69
-10.32
-12.33
-14.82
-17.70
-20.66
-23.18
-24.67
-24.55
-22.46
-18.38
-12.69
-6.09
0.53
6.42
11.24
15.06
18.29
21.35
24.44
27.41
29.98
31.88
33.07
33.76
34.19
34.55
34.73
34.51
33.54
31.62
28.85
25.57
22.29
19.54
17.66
16.72
16.40
16.18
15.53
14.12
11.98
9.45
7.02
5.08
3.69
2.71
1.87
0.90
-0.32
-1.85
-3.80
-6.38
-9.77
-14.06
-19.09
-24.44
-29.58
-33.97
-37.27
-39.35
-40.27
-40.15
-39.10
-37.15
-34.33
-30.76
-26.65
-22.31
-18.15
-14.52
-11.71
-9.82
-8.82
-8.60
-9.01
-9.99
-11.59
-13.89
-16.98
-20.77
-24.97
-29.13
-32.79
-35.72
-37.99
-40.07
-42.59
-46.12
-50.97
-57.09
-64.06
-71.37
-78.60
-85.66
-92.89
-100.96
-110.64
-122.52
-136.67
-152.32
-167.83
-180.65
-187.78
-186.48
-175.04
-153.66
-124.63
-92.02
-60.48
-33.92
-14.35
-1.59
6.22
11.67
17.18
24.53
34.91
49.10
67.60
90.45
116.96
145.53
173.78
199.07
219.21
233.00
240.56
243.25
243.16
242.44
242.57
244.01
246.10
247.47
246.64
242.49
234.60
223.51
210.83
199.08
191.07
188.90
192.85
200.91
209.22
213.74
211.92
203.86
191.98
179.61
169.07
160.58
152.14
140.60
123.14
98.34
66.47
29.12
-11.34
-52.13
-90.23
-122.58
-146.84
-162.46
-171.46
-178.24
-187.79
-203.14
-223.27
-243.07
-255.44
-254.79
-240.06
-215.45
-188.36
-165.91
-151.92
-145.89
-144.39
-143.62
-141.46
-138.06
-134.86
-132.89
-131.64
-129.28
-123.68
-113.83
-100.63
-86.63
-74.85
-67.49
-65.21
-67.20
-72.00
-78.34
-85.64
-93.88
-103.18
-113.35
-123.66
-133.02
-140.15
-143.87
-143.20
-137.45
-126.18
-109.34
-87.40
-61.38
-32.87
-3.75
24.10
49.37
71.59
91.27
109.39
126.71
143.10
157.43
168.01
173.41
173.17
167.96
159.15
148.05
135.36
121.10
105.07
87.48
69.27
51.92
36.91
25.00
15.96
8.80
2.35
-4.01
-10.09
-15.00
-17.63
-17.33
-14.30
-9.59
-4.79
-1.46
-0.65
-2.58
-6.63
-11.62
-16.12
-18.85
-18.93
-16.03
-10.39
-2.65
6.25
15.35
23.85
31.29
37.54
42.65
46.67
49.45
50.66
49.97
47.43
43.60
39.49
36.20
34.28
33.55
32.96
31.14
26.87
19.60
9.48
-2.76
-16.08
-29.40
-41.70
-52.00
-59.50
-63.71
-64.74
-63.45
-61.31
-59.85
-60.01
-61.50
-62.78
-61.66
-56.39
-46.70
-34.36
-22.73
-15.50
-15.13
-21.93
-33.97
-47.95
-60.43
-69.03
-72.71
-71.64
-66.71
-58.98
-49.41
-38.72
-27.40
-15.57
-3.05
10.61
25.95
43.30
62.40
82.14
100.66
115.73
125.49
129.07
127.02
120.98
113.03
104.95
97.81
91.91
87.05
82.81
78.58
73.62
67.17
58.74
48.53
37.47
26.99
18.37
12.11
7.78
4.58
1.98
0.31
0.74
4.71
13.13
25.64
40.47
54.66
65.11
69.50
67.00
58.57
46.60
34.19
24.33
19.09
19.18
23.95
31.66
40.15
47.62
53.11
56.65
58.74
59.71
59.05
55.36
46.77
31.99
11.11
-14.03
-40.21
-63.73
-81.63
-92.60
-97.31
-97.97
-97.41
-97.89
-100.48
-104.84
-109.85
-114.38
-117.90
-120.76
-123.91
-128.26
-134.28
-141.81
-150.13
-158.26
-165.18
-170.05
-172.42
-172.28
-170.10
-166.54
-162.07
-156.64
-149.67
-140.30
-127.94
-112.69
-95.48
-77.70
-60.70
-45.38
-32.05
-20.58
-10.91
-3.25
1.94
4.32
3.98
1.61
-1.64
-4.60
-6.39
-6.59
-5.30
-2.87
0.24
3.58
6.85
9.90
12.75
15.55
18.52
21.91
25.99
30.90
36.70
43.31
50.37
57.38
63.71
68.79
72.33
74.37
75.32
75.85
76.68
78.43
81.42
85.58
90.28
94.41
96.61
95.54
90.39
81.16
68.54
53.73
37.97
22.24
7.22
-6.58
-18.55
-27.88
-33.69
-35.29
-32.50
-25.73
-15.85
-3.96
8.82
21.50
33.24
43.30
51.22
56.82
60.35
62.43
63.91
65.72
68.69
73.47
80.47
89.82
101.30
114.21
127.36
139.19
147.97
152.17
150.69
143.07
129.56
111.13
89.30
65.97
43.03
22.09
4.09
-10.83
-23.24
-34.15
-44.49
-54.58
-64.02
-71.92
-77.43
-80.29
-80.99
-80.39
-79.15
-77.21
-73.79
-67.92
-59.17
-48.05
-35.90
-24.23
-14.03
-5.44
1.92
8.36
13.56
16.53
16.02
11.12
1.84
-10.88
-25.49
-40.31
-53.90
-65.30
-73.98
-79.85
-83.24
-85.04
-86.69
-89.90
-96.05
-105.52
-117.29
-128.93
-137.31
-139.55
-134.07
-121.05
-102.31
-80.50
-58.08
-36.66
-16.71
1.96
19.68
36.37
51.47
64.24
74.19
81.35
86.13
89.02
90.22
89.52
86.57
81.26
73.96
65.47
56.84
48.94
42.32
37.02
32.74
28.86
24.66
19.49
12.96
5.19
-3.16
-10.99
-17.08
-20.59
-21.25
-19.39
-15.81
-11.41
-6.92
-2.72
1.10
4.67
8.09
11.37
14.37
16.87
18.82
20.31
21.67
23.30
25.56
28.63
32.45
36.88
41.73
46.84
51.97
56.74
60.54
62.66
62.53
59.93
55.12
48.70
41.44
33.96
26.61
19.51
12.65
6.02
-0.42
-6.84
-13.51
-20.75
-28.74
-37.34
-46.02
-54.00
-60.53
-65.07
-67.50
-68.07
-67.49
-66.59
-66.18
-66.76
-68.24
-69.93
-70.60
-69.01
-64.36
-56.69
-46.91
-36.59
-27.40
-20.63
-16.99
-16.61
-19.25
-24.39
-31.36
-39.21
-46.65
-52.33
-55.15
-54.64
-51.18
-45.81
-39.95
-34.82
-31.24
-29.48
-29.29
-29.99
-30.71
-30.50
-28.70
-25.27
-20.86
-16.65
-13.92
-13.44
-15.22
-18.52
-22.28
-25.62
-28.21
-30.24
-32.18
-34.39
-36.85
-39.18
-40.92
-41.83
-42.07
-42.14
-42.57
-43.61
-45.07
-46.31
-46.72
-45.89
-43.80
-40.53
-36.00
-29.72
-21.25
-10.66
0.84
10.92
16.93
16.91
10.65
-0.13
-12.49
-23.47
-31.14
-35.09
-36.01
-34.99
-32.86
-29.99
-26.41
-22.27
-17.90
-13.89
-10.81
-8.90
-7.97
-7.38
-6.29
-3.83
0.73
7.82
17.58
29.74
43.65
58.28
72.39
84.81
94.76
101.89
106.37
108.63
109.18
108.37
106.45
103.60
99.93
95.52
90.33
84.14
76.73
68.11
58.72
49.49
41.57
35.76
32.04
29.28
25.58
18.97
8.35
-6.00
-22.43
-38.67
-52.68
-63.47
-71.03
-75.88
-78.46
-78.80
-76.66
-72.15
-66.04
-59.88
-55.37
-53.77
-55.29
-59.02
-63.34
-66.59
-67.84
-67.03
-65.03
-63.03
-62.10
-62.74
-64.82
-67.79
-71.04
-74.14
-76.93
-79.46
-81.79
-83.91
-85.69
-87.00
-87.76
-87.91
-87.26
-85.42
-81.75
-75.56
-66.26
-53.48
-37.35
-18.47
2.02
22.56
41.44
57.16
68.69
75.69
78.34
77.12
72.60
65.46
56.76
47.96
40.55
35.20
31.03
25.82
17.05
3.55
-13.66
-31.59
-46.98
-58.07
-65.63
-72.65
-82.74
-98.39
-119.81
-144.79
-169.50
-189.53
-200.99
-201.25
-189.38
-166.15
-133.87
-95.72
-55.21
-15.64
20.11
49.54
70.71
82.52
85.22
80.60
71.77
62.35
55.38
52.39
53.14
55.88
58.18
57.85
53.54
45.11
33.47
20.32
7.74
-2.12
-7.38
-6.61
0.92
15.12
35.09
58.99
84.38
108.70
129.89
146.84
159.27
167.19
170.23
167.23
156.84
138.56
113.82
86.11
60.01
39.56
26.82
21.50
21.62
24.86
29.60
35.12
41.15
47.28
52.60
56.08
57.20
56.30
54.46
52.79
51.62
50.20
47.16
41.50
33.54
25.25
19.61
19.22
25.13
36.29
50.10
63.55
74.23
81.00
83.80
83.09
79.25
72.44
62.88
51.35
39.57
29.97
24.87
25.52
31.35
40.14
48.92
55.32
58.57
59.69
60.62
62.88
66.48
69.83
70.62
67.34
60.46
52.66
47.82
49.41
58.99
75.79
97.34
120.77
143.85
165.20
183.76
197.93
205.38
203.57
191.06
168.24
137.31
101.16
62.04
20.91
-22.14
-66.72
-111.26
-153.41
-191.30
-225.06
-257.13
-290.97
-328.81
-369.88
-410.13
-443.76
-465.57
-472.84
-465.73
-446.33
-417.12
-379.92
-335.96
-286.54
-233.77
-180.74
-130.99
-87.43
-51.65
-23.57
-1.82
15.53
30.17
42.98
54.01
62.79
68.98
72.78
74.94
76.50
78.29
80.53
82.86
84.55
84.93
83.64
80.65
76.08
69.97
62.28
53.01
42.64
32.19
23.13
16.94
14.52
15.90
20.30
26.48
33.31
40.06
46.32
51.85
56.33
59.25
60.25
59.29
56.75
53.28
49.47
45.65
41.92
38.37
35.27
32.99
31.68
31.15
30.76
29.74
27.53
23.95
19.13
13.19
6.11
-2.14
-11.29
-20.44
-28.18
-32.92
-33.51
-29.59
-21.64
-10.80
1.60
14.17
25.70
35.23
42.19
46.47
48.40
48.63
47.86
46.67
45.41
44.31
43.57
43.43
44.01
45.33
47.14
48.92
50.02
49.87
48.27
45.40
41.78
37.96
34.26
30.64
26.73
22.24
17.20
12.18
8.17
6.20
6.91
10.20
15.29
20.95
25.92
29.29
30.76
30.56
29.23
27.33
25.16
22.68
19.62
15.82
11.36
6.64
2.23
-1.41
-4.17
-6.33
-8.39
-10.88
-14.11
-18.18
-23.04
-28.59
-34.75
-41.34
-47.83
-53.40
-56.97
-57.49
-54.19
-46.78
-35.44
-20.63
-3.05
16.55
37.36
58.55
79.37
99.20
117.55
133.90
147.48
157.13
161.46
159.37
150.56
136.09
118.43
100.99
87.12
78.83
75.64
74.30
69.56
56.21
31.35
-3.87
-44.19
-81.83
-109.32
-122.13
-120.09
-107.26
-90.65
-78.34
-77.54
-92.61
-123.35
-164.36
-205.89
-236.41
-246.31
-231.08
-192.78
-139.00
-79.94
-24.88
19.88
51.67
70.50
77.59
74.45
62.78
44.84
23.91
3.99
-11.01
-18.62
-18.60
-13.31
-6.59
-2.11
-1.85
-5.36
-10.32
-13.93
-14.25
-11.08
-5.63
0.36
5.66
10.08
14.39
19.72
26.99
36.44
47.47
58.83
68.94
76.27
79.72
78.82
73.96
66.33
57.71
49.96
44.42
41.54
41.03
42.07
43.78
45.48
46.64
46.83
45.67
43.15
39.83
36.86
35.49
36.35
39.01
42.04
43.73
43.05
40.19
36.35
32.99
31.02
30.40
30.41
30.19
29.26
27.63
25.55
23.23
20.68
17.83
14.83
12.11
10.32
10.01
11.34
13.97
17.19
20.04
21.59
21.08
18.05
12.48
4.99
-3.16
-10.32
-14.97
-16.24
-14.25
-10.01
-4.91
-0.20
3.42
5.72
6.82
6.93
6.33
5.54
5.42
7.04
11.25
18.18
26.98
36.10
43.83
49.00
51.34
51.38
49.92
47.59
44.59
40.88
36.51
31.89
27.74
24.67
22.82
21.69
20.36
17.95
14.04
8.87
3.13
-2.33
-6.93
-10.47
-13.14
-15.28
-17.17
-18.89
-20.20
-20.65
-19.78
-17.35
-13.56
-9.12
-5.02
-2.23
-1.41
-2.66
-5.65
-9.83
-14.72
-20.06
-25.80
-31.94
-38.41
-44.93
-51.16
-56.75
-61.42
-65.01
-67.40
-68.45
-68.08
-66.30
-63.30
-59.46
-55.30
-51.25
-47.60
-44.38
-41.38
-38.30
-34.83
-30.72
-25.85
-20.18
-13.69
-6.38
1.66
10.24
18.96
27.23
34.30
39.47
42.24
42.40
40.04
35.49
29.22
21.74
13.62
5.51
-1.91
-7.97
-12.13
-14.21
-14.42
-13.38
-11.94
-10.94
-10.98
-12.25
-14.55
-17.43
-20.45
-23.36
-26.06
-28.46
-30.26
-30.94
-29.90
-26.75
-21.67
-15.45
-9.20
-3.96
-0.24
2.06
3.41
4.24
4.61
4.33
3.16
1.21
-1.09
-3.15
-4.54
-5.15
-4.99
-4.05
-2.03
1.43
6.46
12.72
19.27
25.02
29.16
31.45
32.20
31.97
31.20
30.08
28.62
26.89
25.21
24.07
23.92
24.82
26.33
27.47
26.93
23.45
16.01
4.27
-11.23
-28.88
-46.13
-60.05
-68.22
-69.74
-65.72
-59.01
-52.99
-50.25
-51.44
-55.21
-59.07
-60.68
-58.78
-53.43
-45.47
-35.82
-24.93
-12.89
0.14
13.56
26.17
36.47
43.10
45.27
42.96
36.90
28.34
18.76
9.56
1.87
-3.69
-6.93
-8.01
-7.23
-4.95
-1.47
2.84
7.53
12.12
16.19
19.49
22.06
24.16
26.13
28.24
30.53
32.82
34.71
35.76
35.65
34.27
31.90
29.06
26.40
24.48
23.50
23.26
23.16
22.55
20.89
18.09
14.47
10.74
7.71
5.99
5.88
7.34
10.17
14.15
19.07
24.60
30.23
35.26
38.90
40.55
39.97
37.29
32.86
27.18
20.72
13.94
7.27
1.12
-4.22
-8.61
-12.18
-15.16
-17.83
-20.32
-22.66
-24.78
-26.55
-27.87
-28.59
-28.59
-27.91
-26.73
-25.42
-24.38
-23.93
-24.14
-24.86
-25.89
-27.02
-28.27
-29.76
-31.70
-34.20
-37.18
-40.40
-43.47
-46.05
-47.90
-49.00
-49.48
-49.61
-49.65
-49.72
-49.75
-49.45
-48.44
-46.40
-43.20
-38.89
-33.81
-28.37
-23.02
-18.11
-13.76
-9.94
-6.39
-2.87
0.74
4.39
7.86
10.92
13.42
15.37
16.87
18.00
18.61
18.42
17.11
14.53
10.83
6.47
2.20
-1.10
-2.56
-1.53
2.24
8.43
16.23
24.43
31.82
37.45
40.77
41.67
40.18
36.49
30.85
23.62
15.44
7.14
-0.43
-6.62
-11.13
-14.01
-15.55
-16.09
-16.00
-15.54
-15.00
-14.53
-14.25
-14.13
-14.16
-14.35
-14.81
-15.78
-17.44
-19.70
-22.12
-23.93
-24.19
-22.16
-17.53
-10.53
-1.79
7.81
17.39
26.29
34.04
40.31
44.83
47.40
47.81
45.94
41.92
36.02
28.79
20.83
12.77
5.19
-1.50
-7.01
-11.24
-14.25
-16.39
-18.15
-20.16
-23.00
-26.95
-31.85
-37.02
-41.45
-44.06
-44.17
-41.89
-38.09
-34.20
-31.66
-31.46
-33.77
-37.96
-42.90
-47.33
-50.25
-51.18
-50.18
-47.70
-44.33
-40.39
-35.80
-29.95
-22.01
-11.44
1.54
15.79
29.54
41.10
49.38
54.21
56.14
56.06
54.59
52.04
48.34
43.37
37.20
30.09
22.51
14.98
7.94
1.70
-3.56
-7.63
-10.27
-11.22
-10.35
-7.85
-4.31
-0.68
2.09
3.39
3.26
2.35
1.61
1.97
3.97
7.66
12.67
18.35
23.94
28.69
31.96
33.43
33.08
31.19
28.15
24.31
19.94
15.21
10.33
5.59
1.29
-2.36
-5.40
-8.10
-10.95
-14.37
-18.65
-23.75
-29.31
-34.78
-39.47
-42.77
-44.25
-43.77
-41.48
-37.79
-33.19
-28.02
-22.46
-16.56
-10.47
-4.54
0.65
4.47
6.50
6.70
5.39
3.15
0.53
-2.01
-4.19
-5.80
-6.66
-6.69
-6.03
-5.07
-4.34
-4.21
-4.69
-5.42
-5.89
-5.80
-5.25
-4.69
-4.64
-5.38
-6.75
-8.23
-9.21
-9.23
-8.12
-5.89
-2.73
1.15
5.48
9.87
13.85
16.90
18.64
18.84
17.56
15.07
11.89
8.59
5.72
3.64
2.39
1.73
1.26
0.61
-0.43
-1.83
-3.36
-4.74
-5.58
-5.58
-4.49
-2.38
0.40
3.30
5.69
7.15
7.59
7.25
6.51
5.67
4.81
3.88
2.73
1.30
-0.22
-1.49
-2.13
-1.85
-0.58
1.53
4.12
6.70
8.79
9.98
10.08
9.22
7.83
6.58
6.16
7.02
9.13
11.98
14.79
16.81
17.53
16.91
15.19
12.72
9.72
6.32
2.55
-1.43
-5.42
-9.04
-11.98
-14.17
-15.82
-17.30
-19.00
-21.04
-23.22
-25.13
-26.43
-27.11
-27.48
-28.03
-29.07
-30.47
-31.77
-32.48
-32.31
-31.34
-29.91
-28.29
-26.42
-23.98
-20.62
-16.30
-11.36
-6.42
-2.02
1.65
4.74
7.53
10.14
12.45
14.13
14.82
14.35
12.80
10.40
7.51
4.55
1.98
0.28
-0.22
0.60
2.59
5.39
8.55
11.69
14.60
17.13
19.23
20.78
21.67
21.83
21.35
20.52
19.66
19.10
18.98
19.23
19.63
19.96
20.11
20.06
19.91
19.76
19.61
19.35
18.88
18.11
16.99
15.44
13.35
10.62
7.30
3.62
-0.04
-3.31
-5.98
-8.12
-9.85
-11.20
-11.95
-11.70
-10.06
-7.08
-3.31
0.27
2.61
3.01
1.35
-1.95
-6.28
-11.04
-15.80
-20.29
-24.23
-27.31
-29.32
-30.25
-30.36
-30.10
-29.91
-30.03
-30.50
-31.23
-32.10
-33.12
-34.34
-35.87
-37.66
-39.60
-41.50
-43.10
-44.18
-44.54
-44.00
-42.43
-39.77
-36.03
-31.29
-25.61
-19.00
-11.45
-2.98
6.21
15.69
24.77
32.62
38.49
41.91
42.90
41.97
39.90
37.51
35.34
33.49
31.72
29.64
27.05
24.07
21.05
18.42
16.37
14.71
13.07
11.05
8.53
5.69
2.96
0.70
-0.91
-1.88
-2.40
-2.71
-3.01
-3.55
-4.55
-6.20
-8.53
-11.31
-13.98
-15.77
-15.95
-14.08
-10.20
-4.83
1.27
7.32
12.81
17.52
21.51
24.92
27.82
30.20
31.79
32.24
31.14
28.17
23.31
16.96
9.99
3.59
-1.03
-3.02
-2.20
0.76
4.57
7.64
8.58
6.62
1.79
-5.07
-12.76
-20.05
-26.11
-30.74
-34.09
-36.59
-38.51
-40.00
-41.09
-41.88
-42.54
-43.20
-43.75
-43.73
-42.47
-39.36
-34.19
-27.41
-19.92
-12.72
-6.52
-1.53
2.49
5.94
9.07
11.88
14.13
15.54
15.93
15.22
13.56
11.20
8.44
5.65
3.06
0.70
-1.50
-3.69
-5.94
-8.09
-9.86
-11.06
-11.76
-12.31
-13.20
-14.78
-17.07
-19.73
-22.29
-24.48
-26.37
-28.37
-30.88
-34.11
-37.85
-41.56
-44.53
-46.11
-45.99
-44.22
-41.39
-38.38
-36.12
-35.07
-34.74
-33.54
-29.23
-19.98
-5.58
11.81
27.97
37.98
38.02
26.97
6.85
-17.68
-40.77
-57.13
-63.51
-59.76
-48.92
-36.62
-29.30
-31.74
-44.76
-63.91
-80.19
-82.48
-61.73
-14.81
53.52
131.56
204.15
257.74
284.78
285.86
268.58
243.89
221.54
206.98
200.82
200.63
203.49
207.71
212.69
217.64
220.41
217.55
205.65
183.11
150.92
112.14
70.73
30.67
-4.10
-29.24
-40.44
-35.21
-15.23
12.59
37.56
48.61
38.37
5.62
-45.01
-105.21
-165.95
-219.30
-259.18
-281.40
-284.02
-268.07
-237.99
-200.98
-164.97
-136.09
-116.79
-105.61
-98.56
-91.05
-79.97
-64.46
-45.87
-26.78
-10.01
2.28
8.96
10.03
6.50
0.06
-7.11
-12.70
-14.96
-13.27
-8.61
-3.22
0.21
-0.18
-4.62
-11.51
-18.20
-22.16
-22.05
-18.17
-12.01
-5.51
-0.20
3.17
4.59
4.48
3.44
2.06
0.80
0.02
-0.20
-0.00
0.27
0.24
-0.32
-1.43
-2.88
-4.33
-5.48
-6.08
-6.04
-5.41
-4.38
-3.26
-2.47
-2.36
-3.09
-4.57
-6.49
-8.54
-10.68
-13.22
-16.64
-21.33
-27.21
-33.59
-39.27
-42.88
-43.35
-40.18
-33.59
-24.45
-14.03
-3.64
5.64
13.12
18.55
22.00
23.70
23.90
22.86
20.83
18.09
14.93
11.61
8.33
5.19
2.35
0.05
-1.29
-1.11
1.02
5.17
10.85
17.12
22.77
26.75
28.39
27.53
24.39
19.31
12.68
4.96
-3.32
-11.44
-18.67
-24.42
-28.53
-31.26
-33.11
-34.49
-35.44
-35.54
-34.17
-30.85
-25.48
-18.54
-10.89
-3.48
2.90
7.78
11.03
12.70
12.92
11.91
10.00
7.75
5.86
5.00
5.52
7.28
9.75
12.24
14.21
15.51
16.29
16.83
17.31
17.71
17.88
17.64
16.90
15.62
13.84
11.64
9.15
6.56
4.10
1.92
-0.06
-2.03
-4.31
-7.14
-10.59
-14.49
-18.41
-21.76
-23.83
-23.96
-21.60
-16.64
-9.39
-0.68
8.41
16.79
23.61
28.45
31.29
32.48
32.56
32.13
31.69
31.54
31.74
32.30
33.16
34.43
36.27
38.74
41.71
44.77
47.36
48.94
49.15
47.82
44.92
40.51
34.93
29.00
24.07
21.73
23.21
28.69
36.97
45.72
52.07
53.55
48.67
37.14
19.97
-0.66
-21.51
-38.69
-48.47
-48.54
-39.02
-22.77
-4.57
10.58
19.32
20.98
17.41
11.77
7.07
5.10
6.33
10.30
16.35
23.94
32.45
40.98
48.15
52.40
52.38
47.34
37.13
21.90
1.80
-22.87
-51.22
-81.07
-108.82
-129.96
-140.35
-137.67
-122.31
-97.40
-68.06
-39.87
-17.36
-2.98
3.28
3.43
0.43
-2.94
-4.69
-4.00
-0.96
3.91
10.11
17.24
25.04
33.13
41.15
49.33
58.05
67.61
77.89
88.06
96.73
102.21
102.71
96.54
83.16
62.99
38.00
11.89
-10.29
-23.35
-23.65
-10.50
13.33
43.48
74.94
103.80
128.25
148.34
165.11
179.45
191.44
194.39
183.21
155.91
115.55
69.48
25.95
-9.47
-35.37
-53.53
-66.78
-76.22
-81.72
-82.47
-78.23
-69.96
-59.61
-49.32
-40.79
-34.77
-30.28
-26.01
-20.90
-14.74
-8.31
-2.91
0.38
0.74
-1.76
-5.90
-10.28
-13.93
-16.64
-18.86
-21.24
-24.04
-27.25
-30.18
-31.70
-31.12
-28.58
-25.07
-21.96
-20.33
-20.35
-21.86
-24.09
-26.30
-28.50
-31.68
-37.49
-47.88
-64.80
-86.01
-110.97
-139.27
-169.99
-200.82
-227.59
-244.80
-247.42
-233.00
-202.96
-163.03
-120.49
-81.62
-49.75
-25.02
-5.68
10.07
22.87
32.37
37.89
40.30
42.00
45.85
53.33
63.02
70.81
72.51
66.95
57.83
52.93
59.51
79.13
105.15
125.26
128.03
109.66
76.81
42.98
21.59
18.80
31.07
48.27
59.82
59.50
46.36
22.44
-10.24
-50.26
-94.85
-137.63
-168.92
-179.31
-164.57
-128.85
-83.33
-41.05
-11.08
4.80
11.14
13.97
16.34
16.60
10.90
-2.36
-19.34
-31.37
-29.40
-9.48
24.34
61.32
89.35
100.69
95.04
78.42
58.93
42.09
28.44
14.68
-3.12
-26.22
-52.08
-75.61
-91.81
-98.15
-95.33
-86.41
-74.91
-63.27
-52.13
-40.98
-29.08
-16.48
-4.19
6.26
13.56
17.27
17.88
16.60
14.85
13.78
14.13
16.16
19.72
24.38
29.43
33.99
37.20
38.35
37.00
33.16
27.16
19.65
11.36
3.05
-4.71
-11.61
-17.47
-22.18
-25.49
-27.11
-26.79
-24.65
-21.13
-17.00
-13.01
-9.69
-7.04
-4.68
-2.09
1.16
5.25
10.08
15.29
20.45
24.97
28.22
29.57
28.52
24.82
18.58
10.32
0.87
-8.63
-16.95
-23.00
-26.07
-26.02
-23.32
-18.97
-14.26
-10.38
-8.20
-8.03
-9.76
-12.94
-17.10
-21.93
-27.32
-33.30
-39.88
-46.94
-54.03
-60.36
-64.91
-66.58
-64.62
-58.70
-49.23
-37.19
-23.94
-10.95
0.59
9.90
16.71
21.00
22.82
22.16
19.16
14.18
8.10
2.13
-2.51
-4.95
-5.04
-3.23
-0.39
2.60
5.15
6.98
8.05
8.37
7.95
6.78
4.92
2.44
-0.65
-4.35
-8.73
-13.78
-19.27
-24.70
-29.35
-32.30
-32.74
-30.15
-24.56
-16.53
-7.04
2.75
11.83
19.47
25.29
29.16
31.11
31.34
30.13
27.91
25.23
22.62
20.49
19.07
18.42
18.45
19.03
19.89
20.75
21.27
21.13
20.12
18.16
15.34
11.81
7.86
3.71
-0.42
-4.48
-8.55
-12.77
-17.23
-21.78
-25.92
-28.80
-29.48
-27.23
-21.91
-14.02
-4.67
4.86
13.36
20.02
24.50
26.85
27.38
26.47
24.53
21.96
19.24
16.89
15.41
15.10
15.97
17.68
19.63
21.13
21.65
21.00
19.32
16.95
14.23
11.31
8.18
4.72
0.92
-3.07
-6.97
-10.45
-13.42
-16.05
-18.74
-21.88
-25.57
-29.42
-32.55
-33.87
-32.54
-28.29
-21.53
-13.31
-4.90
2.68
8.92
13.84
17.80
21.17
24.12
26.55
28.29
29.35
29.97
30.55
31.46
32.70
33.94
34.61
34.24
32.60
29.76
25.99
21.64
17.01
12.44
8.34
5.06
2.90
1.87
1.72
2.01
2.36
2.53
2.43
1.98
0.99
-0.80
-3.51
-6.93
-10.45
-13.23
-14.46
-13.67
-10.76
-6.07
-0.20
6.09
11.96
16.56
19.16
19.32
17.07
13.09
8.54
4.79
2.97
3.61
6.42
10.50
14.64
17.78
19.32
19.24
17.97
16.05
14.01
12.20
10.79
9.85
9.33
8.98
8.43
7.26
5.13
1.97
-2.08
-6.66
-11.49
-16.34
-21.10
-25.71
-30.07
-33.99
-37.12
-39.03
-39.20
-37.17
-32.69
-25.85
-17.21
-7.67
1.70
9.96
16.51
21.15
24.03
25.40
25.46
24.37
22.17
19.11
15.65
12.45
10.23
9.49
10.36
12.52
15.41
18.50
21.46
24.16
26.64
28.85
30.62
31.64
31.65
30.58
28.61
26.09
23.43
20.88
18.46
16.00
13.27
10.11
6.56
2.69
-1.33
-5.32
-9.12
-12.43
-14.84
-15.95
-15.37
-12.96
-8.93
-3.90
1.29
5.75
8.84
10.26
10.13
8.81
6.82
4.65
2.75
1.48
1.14
1.90
3.77
6.49
9.62
12.58
14.90
16.31
16.72
16.18
14.73
12.37
9.08
4.89
-0.06
-5.48
-10.98
-16.18
-20.62
-23.94
-25.85
-26.32
-25.63
-24.37
-23.29
-23.00
-23.68
-24.98
-26.08
-26.05
-24.23
-20.49
-15.25
-9.33
-3.70
0.88
4.06
5.94
7.03
8.01
9.46
11.62
14.33
17.13
19.51
21.11
21.88
21.92
21.37
20.36
18.92
17.13
15.13
13.13
11.23
9.41
7.51
5.38
3.08
0.93
-0.59
-1.08
-0.49
0.80
2.16
2.86
2.44
0.72
-2.12
-5.66
-9.19
-11.93
-13.05
-11.94
-8.49
-3.17
3.06
8.90
13.27
15.55
15.81
14.61
12.72
10.74
8.98
7.41
5.88
4.34
2.94
1.97
1.75
2.34
3.55
4.94
6.09
6.82
7.20
7.46
7.84
8.31
8.63
8.42
7.35
5.38
2.75
-0.07
-2.61
-4.63
-6.19
-7.65
-9.46
-11.99
-15.24
-18.78
-21.81
-23.43
-22.93
-20.08
-15.15
-8.91
-2.29
3.85
8.91
12.66
15.04
16.05
15.66
13.81
10.62
6.43
1.93
-2.09
-4.90
-6.13
-5.78
-4.21
-1.91
0.67
3.16
5.30
6.81
7.46
7.05
5.58
3.24
0.44
-2.43
-5.03
-7.20
-8.94
-10.35
-11.61
-12.88
-14.29
-15.86
-17.47
-18.85
-19.61
-19.35
-17.79
-14.83
-10.55
-5.23
0.75
6.82
12.35
16.73
19.46
20.35
19.56
17.55
14.93
12.33
10.19
8.80
8.25
8.57
9.72
11.59
13.96
16.45
18.60
20.02
20.43
19.73
17.97
15.28
11.75
7.50
2.73
-2.21
-6.85
-10.70
-13.44
-15.01
-15.66
-15.81
-15.84
-15.94
-16.05
-15.88
-15.10
-13.44
-10.88
-7.66
-4.27
-1.26
0.91
2.08
2.37
2.09
1.60
1.11
0.63
0.12
-0.48
-1.02
-1.28
-0.99
-0.05
1.43
3.15
4.85
6.33
7.55
8.46
8.98
8.94
8.11
6.43
4.07
1.45
-0.89
-2.49
-3.16
-2.98
-2.25
-1.36
-0.72
-0.61
-1.13
-2.21
-3.63
-4.99
-5.95
-6.22
-5.70
-4.44
-2.59
-0.34
2.09
4.51
6.66
8.31
9.30
9.63
9.43
8.91
8.23
7.47
6.61
5.65
4.64
3.70
2.94
2.39
1.92
1.31
0.40
-0.81
-2.13
-3.35
-4.21
-4.62
-4.65
-4.43
-4.20
-4.19
-4.63
-5.73
-7.56
-10.04
-12.87
-15.61
-17.78
-19.00
-19.02
-17.79
-15.40
-11.94
-7.52
-2.29
3.61
9.91
16.29
22.29
27.40
31.15
33.07
32.95
30.76
26.72
21.32
15.15
8.82
2.93
-2.13
-6.13
-9.09
-11.14
-12.46
-13.26
-13.58
-13.49
-13.02
-12.18
-10.97
-9.37
-7.40
-5.22
-3.22
-1.99
-2.12
-4.03
-7.60
-12.22
-16.83
-20.25
-21.55
-20.35
-16.96
-12.23
-7.25
-2.99
-0.02
1.60
2.13
2.07
1.91
2.06
2.72
3.94
5.51
6.90
7.48
6.69
4.38
1.00
-2.53
-5.00
-5.30
-2.81
2.59
10.42
19.78
29.41
37.96
44.11
46.80
45.44
40.02
31.16
20.13
8.62
-1.59
-8.99
-12.71
-12.81
-10.28
-6.61
-3.31
-1.28
-0.65
-0.79
-0.78
0.11
2.14
5.10
8.50
11.80
14.49
16.17
16.59
15.83
14.53
13.94
15.44
19.81
26.54
33.71
38.62
38.97
33.93
24.61
13.74
4.60
-0.06
1.18
8.17
19.36
32.33
44.30
52.77
56.08
53.65
46.07
34.73
21.38
7.76
-4.40
-13.51
-18.29
-18.26
-14.21
-8.33
-3.47
-1.86
-3.85
-7.50
-9.30
-5.72
5.25
23.31
46.33
71.34
95.64
117.24
134.65
146.45
151.05
147.11
134.17
113.20
86.65
57.81
30.01
5.65
-14.27
-30.14
-43.24
-55.07
-66.63
-78.03
-88.66
-97.63
-104.26
-108.42
-110.51
-111.02
-110.20
-107.91
-103.87
-98.02
-90.82
-83.23
-76.35
-70.97
-67.25
-64.84
-63.17
-61.80
-60.61
-59.71
-59.19
-58.91
-58.45
-57.22
-54.73
-50.78
-45.57
-39.63
-33.78
-28.85
-25.51
-24.06
-24.33
-25.68
-27.26
-28.19
-27.82
-25.93
-22.62
-18.22
-13.23
-8.21
-3.65
0.01
2.44
3.57
3.48
2.42
0.74
-1.15
-2.83
-3.95
-4.37
-4.16
-3.57
-2.95
-2.56
-2.51
-2.68
-2.77
-2.53
-1.85
-0.83
0.21
0.78
0.42
-1.15
-3.95
-7.57
-11.30
-14.27
-15.63
-14.86
-11.92
-7.26
-1.67
3.94
8.79
12.43
14.69
15.63
15.41
14.27
12.37
9.94
7.19
4.35
1.60
-0.93
-3.18
-5.15
-6.86
-8.32
-9.44
-10.09
-10.12
-9.55
-8.65
-7.95
-8.16
-9.76
-12.74
-16.53
-20.18
-22.81
-23.98
-23.86
-23.07
-22.20
-21.35
-20.12
-17.69
-13.39
-7.11
0.39
7.61
12.82
14.76
13.28
9.46
5.25
2.68
3.06
6.36
11.40
16.27
19.14
18.84
15.14
8.99
2.47
-1.02
2.62
17.05
43.54
79.45
117.91
149.56
165.92
162.59
141.09
107.67
70.45
36.17
8.64
-10.99
-22.83
-26.66
-21.94
-8.13
13.48
39.27
64.10
82.83
92.04
90.20
78.13
57.71
32.09
4.54
-22.07
-45.54
-64.46
-77.87
-85.10
-84.18
-72.34
-45.70
-1.99
57.31
126.34
196.09
257.69
304.96
337.62
351.87
347.27
326.68
296.14
262.65
231.14
207.77
189.95
174.83
160.60
147.64
137.10
129.61
126.04
126.09
127.96
127.62
121.05
104.78
77.94
42.18
0.87
-42.27
-84.53
-124.50
-162.21
-197.52
-230.08
-258.52
-280.96
-295.27
-299.48
-292.77
-276.22
-253.42
-229.12
-208.25
-193.64
-185.18
-180.45
-176.59
-172.39
-168.89
-168.32
-171.86
-178.58
-185.75
-190.55
-191.89
-191.00
-190.16
-190.69
-191.56
-189.65
-181.85
-167.16
-147.51
-126.59
-107.59
-91.41
-76.25
-59.10
-37.92
-13.16
12.21
34.06
49.07
55.83
54.78
47.30
34.82
18.55
-0.16
-19.43
-36.93
-50.60
-59.41
-63.71
-64.73
-63.77
-61.19
-56.28
-47.76
-34.74
-17.42
2.84
23.92
43.79
60.82
74.07
83.04
87.66
88.17
85.33
80.31
74.52
69.16
64.66
60.51
55.45
48.16
37.95
25.13
10.89
-3.50
-17.28
-30.41
-43.04
-54.77
-64.05
-68.36
-65.31
-53.88
-35.42
-13.47
7.25
22.57
30.21
30.30
25.04
17.43
10.19
4.84
1.52
-0.73
-3.42
-8.07
-15.85
-27.10
-41.32
-57.26
-73.18
-87.36
-98.66
-106.89
-112.65
-116.99
-120.71
-123.88
-125.73
-125.04
-120.84
-112.80
-101.39
-87.48
-71.86
-54.90
-36.68
-17.25
2.84
22.43
40.03
54.37
65.00
72.41
77.89
82.99
88.95
96.42
105.28
114.82
123.94
131.50
136.59
138.80
138.33
136.13
133.61
132.36
133.63
138.07
145.57
155.30
166.03
176.41
185.56
193.43
200.97
209.75
221.31
236.36
254.12
272.33
287.78
297.52
300.06
295.84
286.89
275.61
263.34
249.66
232.62
210.01
180.72
145.58
107.17
68.77
32.97
0.88
-27.96
-54.87
-81.29
-108.57
-138.02
-171.02
-208.06
-247.66
-285.45
-314.66
-328.20
-321.40
-294.02
-250.55
-198.33
-144.83
-95.26
-51.66
-13.72
19.75
49.52
75.39
96.30
110.59
115.98
110.00
90.79
58.29
15.24
-33.05
-80.06
-120.13
-150.24
-170.41
-182.86
-190.19
-193.72
-192.62
-183.79
-162.88
-125.99
-71.65
-2.35
74.77
149.29
210.20
248.98
261.90
250.89
222.95
188.26
157.50
138.90
135.65
144.65
157.32
162.55
150.95
118.33
66.78
2.97
-65.43
-132.98
-197.45
-258.89
-317.97
-374.95
-429.72
-482.16
-531.75
-576.47
-611.70
-630.89
-627.58
-598.15
-543.75
-470.19
-385.76
-298.11
-212.14
-129.64
-50.89
23.27
90.15
145.57
185.60
208.37
215.02
209.17
195.54
178.36
160.36
142.65
125.34
108.36
91.91
76.56
63.06
51.89
42.97
35.61
28.70
20.93
11.36
-0.26
-13.26
-26.21
-37.31
-44.82
-47.55
-45.03
-37.75
-26.94
-14.40
-1.96
9.01
17.92
24.98
30.81
35.99
40.70
44.64
46.90
45.95
39.92
27.17
7.46
-17.01
-41.41
-59.47
-65.86
-58.73
-40.73
-18.22
1.65
14.00
17.99
16.42
13.67
13.15
15.98
21.17
26.97
32.28
37.29
43.12
50.83
60.49
71.10
81.15
89.68
96.92
104.34
113.88
126.87
143.15
161.02
177.78
190.88
198.89
201.88
201.03
197.82
193.09
186.87
178.52
167.53
153.91
138.51
122.74
108.01
95.28
84.67
75.56
66.92
57.68
47.17
35.23
22.23
8.81
-4.26
-16.38
-27.20
-36.74
-45.30
-53.23
-60.82
-68.11
-74.99
-81.23
-86.73
-91.58
-95.97
-99.93
-103.09
-104.72
-104.05
-100.74
-95.17
-88.39
-81.59
-75.51
-70.20
-65.20
-60.05
-54.84
-50.37
-47.79
-47.99
-50.88
-55.28
-59.28
-61.03
-59.52
-54.88
-48.23
-41.01
-34.33
-28.57
-23.36
-18.08
-12.31
-6.11
-0.03
5.22
9.09
11.43
12.54
12.98
13.43
14.47
16.42
19.11
22.04
24.48
25.87
26.01
25.18
23.97
23.00
22.67
23.08
24.18
25.74
27.40
28.67
28.97
27.80
25.03
20.96
16.26
11.68
7.76
4.72
2.55
1.26
1.04
2.22
5.04
9.36
14.57
19.73
23.87
26.28
26.71
25.40
22.83
19.66
16.49
13.75
11.70
10.45
9.94
10.01
10.38
10.70
10.54
9.55
7.56
4.69
1.33
-1.99
-4.76
-6.67
-7.78
-8.41
-9.04
-10.12
-11.87
-14.35
-17.43
-20.84
-24.19
-26.94
-28.55
-28.55
-26.80
-23.58
-19.49
-15.24
-11.32
-7.85
-4.64
-1.45
1.76
4.77
7.17
8.62
9.03
8.66
8.06
7.84
8.48
10.15
12.75
15.87
19.07
22.02
24.68
27.26
30.00
33.04
36.15
38.85
40.56
40.83
39.49
36.69
32.65
27.62
21.70
14.90
7.32
-0.75
-8.73
-15.82
-21.29
-24.59
-25.52
-24.31
-21.61
-18.43
-16.05
-15.76
-18.43
-24.24
-32.48
-41.68
-50.11
-56.32
-59.73
-60.86
-61.09
-62.05
-64.87
-69.61
-75.33
-80.56
-84.17
-85.95
-86.68
-87.58
-89.50
-92.42
-95.42
-97.45
-98.09
-97.95
-98.36
-100.68
-105.30
-111.38
-116.99
-119.89
-118.34
-111.67
-100.47
-86.43
-71.83
-59.04
-49.80
-44.57
-42.28
-40.45
-36.16
-27.37
-14.08
1.45
15.62
25.21
28.88
27.72
24.31
21.36
20.30
21.05
22.52
23.55
23.39
21.59
17.70
11.15
1.82
-9.29
-19.83
-26.64
-26.97
-19.65
-5.54
12.97
32.85
51.30
66.34
76.95
83.07
85.56
86.02
86.32
87.93
91.29
95.61
99.21
100.31
97.71
91.22
81.41
69.31
56.06
42.66
29.95
18.59
8.81
0.49
-6.88
-13.86
-20.82
-28.01
-35.65
-44.09
-53.82
-65.15
-77.93
-91.38
-104.24
-115.17
-122.82
-125.95
-123.19
-113.01
-94.04
-65.41
-27.22
19.62
73.68
133.41
197.19
262.94
327.54
386.50
434.43
466.31
479.14
473.13
452.09
422.15
389.72
359.26
331.97
305.87
277.20
242.38
199.65
149.45
93.86
35.53
-23.10
-79.99
-133.02
-179.83
-217.82
-244.94
-260.51
-265.59
-262.82
-255.53
-246.64
-237.85
-229.48
-220.95
-211.61
-201.23
-190.14
-178.76
-167.02
-154.16
-139.03
-120.78
-99.29
-75.32
-50.19
-25.47
-2.91
15.73
28.85
35.67
36.95
35.32
34.55
38.07
47.25
60.62
74.57
85.13
89.80
88.42
82.32
72.78
59.81
42.46
20.48
-4.14
-26.82
-41.86
-45.00
-35.59
-17.01
4.98
24.73
38.89
46.90
50.21
50.75
49.79
47.60
44.06
39.08
32.90
25.91
18.28
9.89
0.33
-10.86
-23.87
-38.45
-53.89
-69.32
-84.10
-98.03
-111.17
-123.40
-133.98
-141.40
-143.86
-140.19
-130.43
-116.05
-99.32
-82.34
-66.25
-51.13
-36.39
-21.61
-7.08
6.22
16.97
24.14
27.46
27.39
24.97
21.43
17.85
15.01
13.39
13.25
14.59
17.15
20.22
22.76
23.62
21.82
16.87
8.97
-1.09
-12.13
-22.80
-31.84
-38.20
-41.11
-40.16
-35.30
-26.79
-15.18
-1.15
14.57
31.19
47.84
63.52
77.19
87.85
94.89
98.20
98.19
95.66
91.37
85.84
79.20
71.37
62.34
52.41
42.20
32.52
24.05
17.21
12.10
8.57
6.34
4.99
4.01
2.74
0.56
-2.86
-7.46
-12.77
-18.10
-22.93
-27.03
-30.33
-32.77
-34.06
-33.78
-31.65
-27.79
-22.87
-17.83
-13.42
-9.87
-6.90
-4.05
-1.24
0.99
1.69
0.09
-3.83
-9.16
-14.42
-18.23
-19.95
-19.89
-19.01
-18.34
-18.52
-19.62
-21.17
-22.55
-23.31
-23.28
-22.66
-21.95
-21.83
-22.96
-25.61
-29.50
-33.72
-36.95
-37.95
-36.00
-31.15
-24.08
-15.83
-7.43
0.28
6.71
11.41
14.12
14.75
13.46
10.74
7.29
3.92
1.32
-0.10
-0.24
0.68
2.26
4.00
5.46
6.36
6.63
6.27
5.49
4.49
3.47
2.57
1.70
0.53
-1.50
-4.96
-10.16
-16.97
-24.77
-32.60
-39.45
-44.41
-46.71
-45.75
-41.16
-32.93
-21.74
-8.92
3.58
13.82
20.35
22.61
21.08
17.00
12.00
7.65
5.02
4.48
5.50
6.77
6.72
4.13
-1.10
-7.74
-13.51
-15.99
-13.68
-6.70
3.28
13.56
21.45
25.02
23.56
17.56
8.43
-1.84
-11.08
-17.37
-19.55
-17.53
-12.28
-5.50
1.02
5.87
8.34
8.19
5.53
0.61
-6.12
-13.92
-21.80
-28.77
-34.17
-37.92
-40.47
-42.46
-44.29
-45.74
-46.03
-44.18
-39.50
-31.96
-22.35
-12.03
-2.53
4.78
9.05
10.05
8.22
4.65
0.90
-1.41
-1.02
2.46
8.47
15.77
23.07
29.73
36.03
42.88
51.11
60.73
70.56
78.47
82.10
79.66
70.58
55.81
37.65
19.35
4.12
-5.55
-8.71
-6.07
0.42
8.27
15.41
20.62
23.55
24.30
22.95
19.41
13.47
5.26
-4.58
-14.86
-24.02
-30.75
-34.35
-35.06
-34.03
-33.00
-33.76
-37.78
-45.69
-57.41
-72.27
-89.45
-108.31
-128.28
-148.47
-167.07
-181.47
-188.76
-186.83
-175.29
-155.46
-129.28
-97.86
-60.36
-14.62
40.98
105.19
172.84
235.68
285.31
316.17
327.29
322.10
305.99
283.82
258.39
230.66
201.09
170.91
142.01
116.00
93.04
71.41
48.35
21.82
-8.13
-39.25
-68.00
-91.66
-109.65
-123.17
-134.64
-146.22
-158.46
-169.99
-177.94
-179.24
-172.08
-156.86
-134.55
-107.17
-76.76
-44.93
-12.93
18.23
47.35
72.75
92.37
107.03
118.59
129.20
140.06
150.83
160.36
168.01
174.35
180.71
191.85
211.71
242.00
281.79
328.44
379.47
433.36
488.89
528.70
537.26
503.92
429.73
328.33
219.23
119.77
40.43
-12.43
-45.66
-65.12
-75.55
-80.20
-81.47
-81.74
-83.04
-85.69
-89.32
-93.65
-95.24
-90.98
-79.60
-62.92
-45.92
-34.34
-32.46
-41.83
-62.69
-92.16
-127.59
-167.53
-211.91
-261.86
-316.50
-371.73
-420.13
-454.29
-467.43
-457.18
-426.92
-385.60
-345.62
-316.18
-300.11
-293.20
-289.30
-282.63
-271.11
-256.67
-243.63
-236.98
-236.82
-237.35
-228.16
-200.83
-151.45
-83.04
-4.92
79.89
160.77
226.83
267.28
289.19
302.08
312.34
319.76
320.92
313.12
295.48
271.81
248.42
231.39
221.30
214.40
204.79
187.23
159.04
119.86
73.50
26.51
-13.56
-42.12
-57.66
-61.08
-54.51
-40.48
-22.18
-2.36
16.31
31.45
40.04
40.08
31.78
17.74
1.93
-12.14
-22.21
-27.86
-30.14
-31.24
-33.09
-36.60
-41.53
-47.03
-52.49
-57.83
-63.52
-70.19
-78.21
-87.19
-95.98
-103.23
-108.35
-111.82
-115.26
-120.57
-129.23
-141.65
-156.93
-173.00
-186.94
-195.71
-196.87
-189.60
-175.05
-156.19
-136.87
-120.56
-109.23
-103.10
-101.06
-101.47
-102.90
-104.43
-105.56
-106.39
-107.66
-110.84
-117.53
-128.29
-141.47
-153.02
-157.49
-149.93
-127.55
-90.54
-41.66
14.79
73.95
130.95
181.15
220.64
247.28
261.80
268.18
272.64
281.45
298.42
323.13
351.28
376.23
391.30
391.58
374.87
341.79
295.39
240.92
185.24
135.92
99.53
79.90
76.57
84.75
96.99
105.78
106.01
96.33
78.80
57.26
35.58
16.52
1.47
-9.10
-15.25
-17.51
-16.99
-15.48
-15.27
-18.40
-26.00
-37.94
-52.73
-68.17
-81.99
-92.52
-99.03
-101.85
-101.97
-100.71
-99.24
-98.20
-97.75
-97.41
-96.49
-94.26
-90.21
-84.13
-76.12
-66.55
-55.91
-44.85
-34.09
-24.27
-15.94
-9.46
-4.89
-2.13
-0.81
-0.48
-0.71
-1.14
-1.50
-1.68
-1.68
-1.54
-1.32
-1.09
-0.86
-0.65
-0.62
-0.96
-1.88
-3.38
-5.26
-7.09
-8.32
-8.54
-7.67
-5.88
-3.59
-1.22
0.96
2.84
4.44
5.74
6.73
7.40
7.93
8.76
10.55
13.98
19.47
26.86
35.46
44.20
52.08
58.43
63.11
66.27
68.02
68.14
66.03
60.93
52.16
39.57
23.50
4.80
-15.33
-35.38
-53.69
-68.74
-79.87
-87.97
-95.80
-107.55
-127.32
-157.21
-195.87
-238.26
-277.00
-304.68
-315.94
-308.60
-283.68
-244.54
-196.09
-144.03
-94.10
-51.24
-18.60
3.04
15.20
20.81
23.00
23.98
24.46
23.69
20.17
12.78
1.90
-10.03
-18.89
-20.63
-13.41
1.12
18.35
33.14
42.83
48.93
56.11
69.20
89.81
114.87
137.86
152.19
154.31
145.04
128.39
109.15
90.49
73.19
56.43
39.30
22.01
6.02
-6.80
-15.44
-20.59
-24.38
-29.41
-37.30
-47.85
-59.09
-68.24
-73.08
-72.99
-69.16
-63.88
-59.43
-56.98
-56.24
-55.75
-53.79
-49.31
-42.38
-34.16
-26.28
-20.30
-17.21
-17.49
-21.20
-28.07
-37.44
-47.97
-57.80
-65.03
-68.49
-68.37
-66.34
-64.74
-65.34
-68.54
-73.14
-77.23
-79.47
-79.94
-80.04
-81.61
-85.80
-92.47
-100.57
-109.06
-117.79
-127.39
-138.54
-150.70
-161.56
-167.42
-164.42
-149.87
-123.11
-85.25
-38.67
13.47
67.24
117.59
158.50
184.11
190.71
178.83
153.92
124.81
100.60
87.23
85.50
91.52
98.93
101.76
96.36
81.84
59.49
31.91
2.51
-24.72
-45.55
-56.27
-54.84
-41.54
-18.96
8.97
38.32
66.32
91.76
114.70
135.76
155.38
173.36
188.84
200.56
207.40
208.72
204.53
195.50
182.76
167.77
152.22
137.84
125.90
116.78
109.62
102.65
94.07
83.09
70.57
58.84
50.54
47.24
48.68
52.86
57.11
59.37
58.92
56.46
53.35
50.79
49.42
49.35
50.52
52.93
56.72
61.92
68.33
75.37
82.27
88.31
92.86
95.45
95.77
93.74
89.57
83.85
77.31
70.59
63.80
56.54
47.97
37.18
23.56
6.90
-12.50
-33.98
-56.42
-78.29
-97.91
-113.86
-125.41
-132.69
-136.62
-138.34
-138.80
-138.56
-137.92
-137.08
-136.15
-135.03
-133.00
-128.81
-121.08
-108.98
-92.96
-74.77
-57.05
-42.34
-32.25
-27.07
-25.80
-26.65
-27.70
-27.39
-24.90
-20.21
-13.96
-7.15
-0.68
4.87
9.38
13.15
16.64
20.39
24.82
30.24
36.84
44.59
53.17
61.96
70.16
76.95
81.85
84.90
86.41
86.68
85.54
82.30
76.13
66.72
54.93
42.85
33.05
27.53
26.71
29.28
33.00
35.74
36.51
35.25
32.22
27.00
18.18
4.06
-16.22
-41.53
-68.69
-93.26
-111.02
-119.48
-118.65
-110.89
-99.94
-89.70
-83.02
-81.15
-83.84
-90.05
-98.71
-109.03
-120.25
-130.98
-138.87
-141.04
-135.38
-121.81
-103.02
-83.46
-67.42
-57.00
-51.09
-46.16
-38.29
-25.22
-7.28
13.38
34.25
53.86
71.77
87.66
100.39
107.88
108.20
101.10
88.90
75.69
65.46
60.12
58.53
57.32
52.91
43.42
29.53
13.76
-1.01
-12.95
-21.99
-29.36
-36.74
-45.37
-55.53
-66.59
-77.49
-87.22
-95.20
-101.19
-105.18
-106.93
-105.82
-100.88
-91.04
-75.59
-54.39
-28.09
1.85
33.25
63.71
90.95
113.25
129.67
139.95
144.09
142.19
134.44
121.45
104.61
86.23
69.06
55.52
46.91
43.13
43.00
44.99
47.79
50.40
51.69
50.08
43.82
31.76
14.19
-6.78
-27.94
-46.21
-60.07
-69.87
-77.34
-84.19
-90.95
-96.63
-99.24
-97.17
-90.12
-79.40
-67.34
-56.07
-46.67
-38.67
-30.54
-20.52
-7.68
7.47
23.06
36.60
46.15
51.18
52.78
53.12
54.27
57.13
60.93
63.59
62.80
57.05
46.42
32.59
18.07
5.39
-3.80
-8.99
-10.58
-9.44
-6.27
-1.43
4.99
12.73
21.00
28.44
33.47
35.07
33.36
29.71
26.18
24.60
25.75
29.00
32.68
34.84
33.95
29.44
21.74
12.07
2.14
-6.32
-11.89
-13.85
-12.29
-8.05
-2.41
3.37
8.36
12.02
14.04
14.20
12.32
8.27
2.24
-5.24
-13.31
-21.00
-27.58
-32.69
-36.52
-39.63
-42.75
-46.49
-50.96
-55.56
-59.00
-59.55
-55.66
-46.62
-33.03
-16.68
-0.12
14.20
24.65
30.81
33.54
34.67
36.49
41.09
49.63
61.75
75.34
87.09
93.62
92.71
84.21
69.91
52.66
35.12
18.95
4.69
-7.76
-18.44
-26.98
-32.87
-35.85
-36.37
-35.64
-35.14
-36.11
-39.04
-43.53
-48.50
-52.70
-55.16
-55.52
-54.05
-51.32
-47.94
-44.27
-40.33
-35.97
-30.99
-25.26
-18.66
-10.92
-1.75
9.05
21.28
34.23
46.68
57.16
64.40
67.60
66.66
62.04
54.61
45.34
35.06
24.30
13.38
2.33
-8.93
-20.57
-32.62
-44.95
-57.04
-68.10
-77.13
-83.14
-85.42
-83.71
-78.26
-69.88
-59.75
-49.18
-39.16
-30.03
-21.25
-11.73
-0.38
13.34
29.06
45.54
61.19
74.57
84.77
91.26
93.68
91.86
85.96
76.91
66.39
56.51
48.94
44.20
41.41
38.81
34.55
27.54
17.84
6.39
-5.53
-16.99
-27.67
-37.92
-48.41
-59.69
-71.88
-84.45
-96.34
-106.15
-112.52
-114.53
-111.84
-104.75
-93.99
-80.61
-65.58
-49.75
-33.62
-17.32
-0.68
16.60
34.72
53.56
72.49
90.47
106.07
117.69
123.87
123.69
117.20
105.58
91.04
76.28
63.74
54.86
49.76
47.32
45.76
43.23
38.41
30.74
20.38
8.05
-5.25
-18.53
-31.01
-42.38
-52.75
-62.59
-72.34
-82.07
-91.12
-98.15
-101.36
-99.09
-90.31
-75.17
-55.00
-32.20
-9.71
9.61
23.72
31.95
35.20
35.73
36.32
39.29
45.46
53.81
61.93
67.03
67.12
61.81
52.33
40.98
30.03
21.10
14.80
10.92
8.82
7.90
7.65
7.64
7.30
5.92
2.80
-2.51
-9.95
-18.91
-28.37
-37.18
-44.36
-49.26
-51.77
-52.25
-51.43
-50.29
-49.78
-50.45
-52.18
-54.11
-54.77
-52.38
-45.33
-32.43
-13.25
11.67
40.67
70.93
98.89
120.97
134.44
138.19
132.97
120.94
104.83
87.09
69.40
52.66
37.22
23.22
10.67
-0.56
-10.73
-20.05
-28.48
-35.71
-41.22
-44.74
-46.48
-47.25
-48.26
-50.65
-55.11
-61.63
-69.50
-77.49
-84.19
-88.32
-88.97
-85.78
-78.84
-68.79
-56.64
-43.61
-30.86
-19.26
-9.06
0.22
9.57
19.96
31.73
44.12
55.36
63.35
66.61
64.94
59.53
52.38
45.40
39.67
35.23
31.38
27.29
22.36
16.47
9.83
2.73
-4.57
-11.86
-18.97
-25.65
-31.75
-37.08
-41.49
-44.81
-46.82
-47.40
-46.63
-44.91
-42.92
-41.53
-41.44
-42.91
-45.61
-48.55
-50.30
-49.28
-44.18
-34.38
-20.11
-2.60
16.19
33.99
48.53
58.11
61.79
59.49
51.99
40.58
26.82
12.19
-2.06
-14.92
-25.51
-33.19
-37.79
-39.82
-40.54
-41.76
-45.19
-51.89
-61.93
-74.47
-88.11
-101.44
-113.34
-123.21
-130.79
-135.93
-138.31
-137.17
-131.22
-118.83
-98.59
-69.81
-33.23
8.95
53.36
96.08
133.39
162.28
180.91
188.69
186.22
175.03
157.10
134.54
109.38
83.63
59.49
39.24
24.82
17.37
16.65
21.05
28.10
35.17
40.07
41.40
38.55
31.60
21.20
8.50
-4.99
-17.77
-28.66
-36.95
-42.49
-45.40
-45.94
-44.49
-41.55
-37.87
-34.37
-31.97
-31.36
-32.76
-35.78
-39.40
-42.08
-42.09
-37.92
-28.79
-14.96
2.25
20.88
38.88
54.70
67.61
77.62
85.25
91.09
95.60
98.95
101.12
101.96
101.31
99.14
95.52
90.70
84.94
78.32
70.56
61.14
49.50
35.46
19.48
2.60
-13.85
-28.58
-40.67
-49.71
-55.79
-59.45
-61.49
-62.84
-64.22
-65.75
-66.84
-66.29
-62.68
-54.95
-43.02
-27.83
-11.17
4.79
18.09
27.55
33.02
35.49
36.86
39.31
44.51
52.91
63.50
74.03
81.86
84.93
82.36
74.58
62.94
49.20
35.00
21.77
10.58
2.12
-3.53
-7.02
-9.75
-13.39
-19.39
-28.34
-39.82
-52.59
-65.20
-76.50
-86.00
-93.76
-100.22
-105.78
-110.63
-114.46
-116.49
-115.46
-109.96
-98.87
-81.90
-59.90
-34.86
-9.47
13.55
32.12
45.12
52.46
54.79
53.26
49.18
43.93
38.75
34.67
32.41
32.42
34.74
38.97
44.26
49.23
52.23
51.84
47.33
39.07
28.48
17.58
8.20
1.48
-2.43
-4.19
-4.91
-5.64
-7.22
-10.06
-14.33
-19.92
-26.57
-33.85
-41.27
-48.23
-54.23
-58.93
-62.21
-64.34
-65.82
-67.26
-69.10
-71.31
-73.23
-73.69
-71.39
-65.38
-55.48
-42.34
-27.16
-11.05
5.68
23.59
43.68
66.37
90.70
114.13
133.33
145.55
149.77
147.06
139.86
130.71
121.09
111.13
100.06
87.21
72.63
57.26
42.38
28.93
17.08
6.33
-4.14
-15.00
-26.42
-37.98
-48.98
-58.69
-66.63
-72.70
-77.05
-80.05
-82.12
-83.58
-84.59
-85.11
-84.82
-83.19
-79.51
-73.21
-63.98
-51.98
-37.73
-21.93
-5.27
11.80
29.06
46.35
63.33
79.18
92.56
101.85
105.58
103.01
94.39
80.87
64.19
46.07
27.91
10.64
-5.10
-18.85
-30.17
-39.01
-45.91
-52.04
-58.88
-67.57
-78.32
-90.19
-101.42
-110.21
-115.36
-116.80
-115.48
-112.91
-110.65
-109.74
-110.53
-112.60
-114.78
-115.23
-111.64
-101.61
-83.29
-56.06
-21.06
18.82
59.31
95.68
123.70
140.60
145.47
139.31
124.63
104.60
82.30
60.06
39.05
19.22
-0.35
-21.07
-44.05
-69.61
-96.72
-122.87
-144.28
-156.51
-155.44
-138.48
-105.68
-60.39
-8.99
40.45
80.31
105.50
114.73
110.47
97.64
81.54
66.28
53.99
45.23
39.86
37.75
39.05
43.81
51.55
61.08
70.81
79.25
85.47
89.15
90.24
88.56
83.56
74.40
60.44
41.75
19.43
-4.49
-27.33
-46.51
-60.14
-67.52
-69.18
-66.67
-61.92
-56.56
-51.50
-46.66
-41.29
-34.42
-25.43
-14.38
-1.96
10.92
23.58
35.84
47.96
60.27
72.71
84.59
94.69
101.81
105.29
105.51
103.83
102.01
101.42
102.28
103.43
102.70
97.83
87.41
71.60
52.10
31.57
12.70
-2.85
-14.95
-25.05
-35.49
-48.95
-67.54
-92.13
-121.75
-153.16
-180.97
-198.38
-198.95
-178.72
-138.19
-83.03
-23.08
30.33
67.79
84.59
81.80
65.15
42.47
20.87
4.86
-3.74
-4.83
1.35
14.74
34.74
58.91
82.34
98.61
102.31
91.70
69.94
44.02
21.67
8.02
3.77
5.77
9.28
10.54
8.29
3.38
-2.45
-7.90
-12.65
-17.16
-21.89
-26.96
-32.01
-36.45
-39.71
-41.37
-41.25
-39.46
-36.52
-33.26
-30.79
-30.00
-31.20
-33.80
-36.37
-37.19
-34.86
-28.97
-20.21
-10.11
-0.43
7.42
12.66
15.14
15.25
13.89
12.49
12.88
16.90
25.62
38.79
54.51
69.62
80.58
84.55
80.15
67.66
48.79
26.17
2.58
-19.45
-38.16
-52.76
-63.50
-71.49
-78.21
-84.89
-91.88
-98.32
-102.17
-100.87
-92.43
-76.55
-55.38
-33.20
-15.14
-5.25
-4.70
-11.07
-19.02
-22.20
-15.68
2.10
28.72
58.61
85.13
102.88
109.42
105.68
95.02
81.63
68.85
58.23
49.62
42.02
34.38
26.18
17.37
8.01
-1.76
-11.72
-21.14
-28.83
-33.55
-34.65
-32.67
-29.33
-27.02
-28.04
-33.89
-45.08
-61.15
-80.92
-102.48
-123.09
-139.13
-146.55
-141.95
-124.07
-94.85
-59.41
-24.53
3.75
22.45
32.52
37.90
43.25
51.47
62.46
73.65
81.70
84.43
81.52
74.15
63.67
50.61
34.61
15.16
-7.26
-30.72
-52.19
-68.63
-78.16
-80.60
-77.29
-70.27
-61.34
-51.58
-41.51
-31.51
-22.31
-15.06
-11.07
-11.19
-15.38
-22.44
-30.22
-36.12
-37.79
-33.87
-24.43
-10.90
4.50
19.57
32.77
43.34
50.91
54.95
54.51
48.56
36.70
19.77
-0.14
-20.44
-39.13
-55.55
-70.22
-84.06
-97.26
-108.76
-116.51
-118.54
-113.98
-103.47
-89.00
-73.08
-57.90
-44.93
-34.63
-26.35
-18.03
-6.38
12.55
41.79
81.64
128.46
174.99
212.40
233.35
234.57
217.81
188.75
154.60
121.55
93.36
71.35
55.33
44.59
38.40
35.66
34.44
31.97
25.44
13.25
-4.02
-23.50
-41.13
-53.39
-58.69
-57.86
-53.40
-48.22
-44.31
-42.12
-40.79
-38.78
-34.68
-27.87
-18.97
-9.88
-3.36
-2.03
-7.02
-16.93
-27.73
-34.07
-31.58
-18.92
1.30
23.44
41.09
49.45
47.03
35.66
19.71
4.52
-5.07
-5.80
3.20
20.08
40.57
58.93
69.53
68.52
54.86
30.59
-0.07
-31.95
-60.17
-80.99
-92.30
-93.76
-86.78
-74.28
-60.09
-48.00
-40.66
-38.61
-39.97
-40.87
-36.88
-24.66
-3.50
24.08
53.03
77.40
92.38
95.79
88.46
73.51
54.82
35.71
18.25
3.22
-9.29
-19.60
-28.16
-35.60
-42.70
-50.03
-57.54
-64.11
-67.76
-66.28
-58.12
-43.27
-23.60
-2.39
16.52
29.91
36.21
35.87
31.03
24.54
18.63
14.20
10.66
6.89
2.36
-2.00
-4.11
-1.81
5.74
17.27
29.63
39.10
42.95
40.34
32.24
20.53
6.93
-7.53
-22.51
-37.83
-53.04
-67.25
-79.33
-88.25
-93.09
-92.89
-86.46
-72.55
-50.43
-20.75
13.85
48.82
78.74
98.75
105.93
99.93
82.87
58.48
31.16
5.13
-15.95
-29.25
-32.87
-26.17
-10.00
13.10
39.27
64.01
83.17
93.84
95.01
87.48
73.38
55.32
35.56
15.47
-4.42
-24.06
-43.42
-62.15
-79.40
-94.12
-105.19
-111.74
-113.14
-109.19
-99.91
-85.64
-66.93
-44.46
-19.14
7.87
35.09
60.87
83.58
101.84
114.73
121.85
123.29
119.66
112.04
101.78
90.42
79.27
69.11
60.00
51.32
42.10
31.34
18.41
3.08
-14.53
-34.16
-55.42
-77.73
-100.18
-121.39
-139.64
-153.02
-159.98
-159.73
-152.33
-138.65
-120.03
-97.96
-73.93
-49.43
-25.89
-4.58
13.68
28.64
40.55
49.65
55.74
58.03
55.64
48.33
37.19
24.61
13.50
6.12
3.14
3.60
5.45
6.62
5.93
3.29
-0.54
-4.68
-8.74
-12.98
-18.01
-24.31
-31.67
-39.08
-45.09
-48.36
-48.26
-45.00
-39.21
-31.45
-21.91
-10.52
2.58
16.59
30.10
41.64
50.31
56.03
59.21
60.12
58.55
54.02
46.50
37.16
28.51
23.70
25.17
33.56
47.26
62.84
76.20
83.91
84.08
76.64
63.07
45.64
26.64
7.83
-9.89
-26.27
-41.39
-55.18
-67.24
-76.94
-83.76
-87.42
-87.92
-85.20
-78.98
-68.93
-55.13
-38.59
-21.33
-5.85
5.81
12.62
14.71
12.81
7.45
-1.19
-12.92
-26.76
-40.55
-51.22
-55.93
-53.20
-43.62
-29.59
-14.31
-0.62
9.72
16.28
19.54
20.37
19.53
17.45
14.23
9.85
4.37
-1.96
-8.65
-15.14
-20.87
-25.30
-27.76
-27.35
-23.13
-14.54
-1.88
13.41
29.13
43.01
53.47
59.99
62.77
62.14
58.08
50.45
39.71
27.63
17.21
11.73
13.27
21.71
34.58
48.17
58.98
64.80
64.93
59.59
49.07
33.41
12.78
-11.80
-37.95
-62.08
-80.28
-89.70
-89.43
-80.79
-66.68
-50.39
-34.53
-20.56
-8.74
1.20
9.48
16.21
21.48
25.45
28.34
30.09
30.01
26.75
18.94
6.08
-10.54
-27.77
-41.44
-47.92
-45.63
-35.73
-21.60
-7.50
3.04
8.32
8.40
4.40
-2.49
-11.48
-22.06
-33.46
-44.29
-52.68
-56.81
-55.87
-50.17
-40.94
-29.75
-17.69
-5.27
7.38
20.12
32.60
44.46
55.57
66.25
77.00
87.98
98.46
106.83
111.11
109.84
102.97
92.00
79.54
68.33
60.29
55.95
54.45
54.04
52.66
48.51
40.33
27.52
10.00
-11.65
-36.15
-61.42
-84.63
-102.84
-113.76
-116.62
-112.55
-104.12
-94.32
-85.36
-78.00
-71.69
-65.29
-57.84
-48.99
-38.99
-28.42
-18.14
-9.37
-3.61
-2.22
-5.70
-12.92
-21.19
-26.98
-27.28
-20.89
-8.79
6.23
20.74
31.75
37.52
37.70
32.91
24.26
12.87
-0.19
-13.77
-26.46
-36.60
-42.56
-43.19
-38.27
-28.61
-15.74
-1.39
13.06
26.88
39.87
52.00
63.02
72.28
78.76
81.39
79.44
72.94
62.90
51.30
40.57
32.91
29.52
30.30
33.90
38.34
41.62
42.22
39.27
32.37
21.27
5.88
-13.62
-36.34
-60.38
-83.08
-101.56
-113.48
-117.68
-114.36
-104.81
-90.89
-74.53
-57.35
-40.48
-24.31
-8.55
7.65
25.09
43.81
62.45
78.22
87.64
87.84
77.74
58.74
34.33
8.99
-13.15
-29.38
-38.86
-42.33
-41.52
-38.42
-34.87
-32.30
-31.74
-33.91
-39.19
-47.54
-58.19
-69.59
-79.42
-85.16
-84.81
-77.58
-64.16
-46.30
-26.13
-5.41
14.72
33.75
51.44
67.47
81.26
92.14
99.42
102.56
101.26
95.62
86.27
74.65
62.97
53.68
48.67
48.45
51.85
56.38
59.30
58.49
53.07
43.20
29.53
12.53
-7.51
-30.06
-53.63
-75.50
-92.36
-101.43
-101.54
-93.64
-80.25
-64.32
-48.06
-32.43
-17.28
-1.93
14.16
31.00
47.88
63.43
75.73
82.72
82.76
75.45
61.92
44.89
27.79
13.67
4.20
-0.69
-2.47
-3.30
-5.07
-9.07
-15.81
-25.29
-37.32
-51.65
-67.82
-85.07
-102.19
-117.65
-129.75
-136.87
-137.43
-130.06
-113.76
-88.31
-54.92
-16.54
22.49
57.55
85.14
104.05
115.37
121.54
124.67
125.30
122.38
114.37
100.84
83.46
65.76
51.65
43.63
41.61
43.02
44.08
41.61
34.11
22.07
7.01
-9.52
-26.67
-44.12
-61.50
-77.83
-91.50
-100.84
-104.83
-103.63
-98.41
-90.60
-81.29
-70.69
-58.33
-43.41
-25.38
-4.20
19.43
44.07
67.56
87.06
99.42
102.03
93.84
76.17
52.84
29.32
10.90
1.06
0.23
5.96
14.05
20.18
21.30
16.24
5.45
-9.58
-27.03
-45.23
-62.71
-78.14
-90.25
-97.75
-99.60
-95.22
-84.91
-69.86
-52.04
-33.61
-16.25
-0.65
13.67
27.83
42.86
58.98
75.37
90.39
102.14
109.06
110.27
105.68
96.00
82.79
68.30
55.20
45.83
41.56
42.07
45.43
48.63
48.56
42.90
30.65
12.09
-11.41
-37.78
-64.62
-89.47
-110.10
-124.91
-132.94
-133.98
-128.44
-117.12
-100.99
-81.13
-58.76
-35.23
-11.84
10.17
29.76
46.19
58.86
67.10
70.24
67.69
59.41
46.22
30.12
13.94
0.70
-7.32
-9.36
-6.50
-1.21
3.51
5.20
2.58
-4.29
-14.54
-27.12
-41.10
-55.51
-68.91
-79.13
-83.98
-82.06
-73.71
-60.98
-46.53
-32.07
-17.44
-1.06
18.46
40.68
62.92
81.41
93.40
98.70
99.64
99.49
100.26
101.58
101.13
96.40
86.59
73.32
60.11
50.59
46.78
48.29
52.64
56.49
57.04
52.77
43.57
30.10
13.14
-6.75
-29.09
-52.96
-76.48
-96.97
-111.48
-117.83
-115.35
-105.23
-90.01
-72.62
-55.49
-39.98
-26.28
-13.70
-1.26
11.85
25.67
39.29
50.85
57.93
58.33
50.96
36.49
17.57
-1.83
-17.59
-26.74
-28.38
-23.83
-15.85
-7.68
-1.94
-0.16
-2.83
-9.70
-20.16
-33.39
-48.31
-63.42
-76.83
-86.67
-91.42
-90.44
-83.97
-72.95
-58.59
-42.00
-24.08
-5.67
12.28
28.65
42.47
53.27
61.45
68.19
75.02
82.99
91.98
100.70
107.30
110.35
109.80
107.14
104.79
104.95
108.39
113.93
118.82
119.72
113.92
100.08
78.33
49.91
16.71
-19.00
-54.55
-86.93
-113.04
-130.39
-137.79
-135.92
-127.20
-114.84
-101.62
-89.03
-76.97
-64.45
-50.56
-35.22
-19.39
-4.65
7.42
15.67
19.47
18.59
13.23
4.20
-6.78
-17.14
-24.03
-25.31
-20.43
-10.76
0.93
11.44
18.25
20.27
17.76
11.87
3.91
-5.10
-14.49
-23.77
-32.36
-39.60
-44.86
-47.89
-48.86
-48.20
-46.14
-42.50
-36.70
-28.25
-17.26
-4.61
8.32
20.33
30.88
40.28
49.32
58.50
67.65
75.78
81.47
83.59
81.91
77.31
71.49
66.27
62.99
61.89
62.10
62.00
59.87
54.47
45.37
32.89
17.65
0.36
-18.32
-37.52
-55.92
-71.74
-83.07
-88.52
-87.83
-81.96
-72.80
-62.48
-52.58
-43.95
-36.81
-31.20
-27.23
-25.07
-24.47
-24.45
-23.37
-19.79
-13.40
-5.67
0.59
2.49
-1.45
-10.36
-21.12
-29.68
-32.63
-28.54
-18.39
-4.94
8.37
18.63
24.18
24.86
21.57
15.70
8.43
0.51
-7.76
-16.22
-24.35
-31.25
-35.84
-37.15
-34.72
-28.61
-19.33
-7.68
5.36
18.69
31.25
42.33
51.65
59.60
66.81
73.81
80.48
85.93
88.67
87.22
80.73
69.42
54.70
38.88
24.54
13.89
8.12
7.14
9.65
13.57
16.56
16.52
11.92
2.00
-13.15
-32.40
-53.66
-74.07
-90.56
-100.54
-102.53
-96.50
-83.67
-66.19
-46.62
-27.42
-10.67
2.33
11.21
16.66
19.90
22.13
23.87
24.56
22.82
17.15
6.82
-7.48
-23.71
-39.05
-50.81
-57.18
-57.53
-52.35
-42.81
-30.40
-16.71
-3.27
8.33
16.70
20.74
19.92
14.50
5.52
-5.31
-16.08
-25.12
-31.36
-34.49
-34.92
-33.43
-30.61
-26.54
-20.85
-13.08
-3.19
8.14
19.79
30.77
40.89
50.81
61.58
73.69
86.28
97.08
103.15
102.14
93.32
78.04
59.25
40.47
24.79
14.12
8.99
8.78
12.02
16.78
20.95
22.46
19.45
10.75
-3.82
-23.02
-44.31
-64.27
-79.59
-87.95
-88.79
-83.30
-73.82
-62.84
-52.12
-42.38
-33.55
-25.25
-17.18
-9.18
-1.20
6.77
14.44
20.77
23.86
21.44
11.97
-4.14
-23.97
-42.56
-54.43
-55.62
-45.19
-25.58
-1.71
20.79
37.33
45.45
44.82
36.67
22.85
5.36
-13.79
-32.42
-48.15
-58.81
-63.07
-61.11
-54.64
-46.34
-38.71
-32.98
-28.82
-24.76
-19.08
-10.61
0.95
15.33
31.95
50.11
68.83
86.41
100.51
108.57
108.78
101.03
87.18
70.80
55.93
45.82
41.96
43.78
48.98
54.50
57.35
55.43
47.77
34.58
16.98
-3.29
-24.13
-43.30
-58.85
-69.45
-74.72
-75.34
-72.77
-68.71
-64.51
-60.73
-57.10
-53.00
-47.94
-41.91
-35.39
-28.89
-22.56
-15.97
-8.57
-0.30
7.77
13.49
14.24
8.31
-4.08
-20.32
-36.10
-46.90
-49.68
-43.74
-30.77
-13.86
3.64
18.97
30.22
36.19
36.13
29.85
17.93
2.01
-15.29
-30.94
-42.31
-47.97
-48.00
-43.85
-37.55
-30.92
-24.87
-19.23
-13.11
-5.60
3.61
14.12
25.04
35.71
45.97
56.24
66.96
77.94
88.04
95.23
97.41
93.19
82.67
67.54
50.53
34.57
21.91
13.59
9.40
8.28
8.68
9.05
7.98
4.28
-2.84
-13.66
-27.57
-43.05
-57.85
-69.53
-76.22
-77.14
-72.93
-65.30
-56.36
-47.88
-40.70
-34.73
-29.33
-23.83
-18.01
-12.04
-6.19
-0.53
5.29
11.77
19.15
26.94
33.70
37.36
35.90
28.32
15.24
-0.97
-16.68
-28.14
-32.76
-29.81
-20.65
-8.09
4.66
14.88
20.99
22.47
19.52
12.70
2.71
-9.50
-22.58
-34.81
-44.35
-49.86
-51.00
-48.56
-43.96
-38.41
-32.28
-25.03
-15.76
-4.03
9.80
24.76
39.77
54.16
67.71
80.24
91.21
99.43
103.31
101.53
93.71
80.84
65.26
50.10
38.41
32.22
31.83
35.73
41.09
44.83
44.60
39.34
29.17
14.79
-2.94
-23.15
-44.70
-65.85
-84.33
-97.79
-104.51
-103.98
-97.07
-85.66
-71.99
-58.01
-45.01
-33.69
-24.24
-16.64
-10.59
-5.51
-0.65
4.68
10.74
17.08
22.40
24.92
23.03
15.97
4.41
-9.42
-22.22
-30.54
-31.83
-25.34
-12.26
4.68
22.05
36.73
46.58
50.54
48.51
41.00
28.99
13.82
-2.78
-18.90
-32.77
-43.12
-49.52
-52.41
-52.74
-51.48
-49.06
-45.19
-39.09
-30.07
-18.10
-3.99
10.98
25.70
39.75
53.37
66.98
80.38
92.25
100.32
102.25
96.87
84.93
69.16
53.37
41.12
34.54
33.79
37.34
42.71
47.37
49.33
47.34
40.76
29.50
14.06
-4.32
-23.68
-41.58
-55.71
-64.53
-67.87
-66.87
-63.52
-59.86
-57.23
-55.85
-55.12
-54.14
-52.31
-49.58
-46.15
-41.97
-36.44
-28.64
-18.00
-5.21
7.49
16.79
19.60
14.48
2.44
-13.24
-28.17
-38.32
-41.31
-36.90
-26.67
-13.26
0.53
12.35
20.62
24.51
23.81
18.96
10.84
0.84
-9.48
-18.59
-25.26
-28.91
-29.65
-28.20
-25.53
-22.35
-18.86
-14.77
-9.52
-2.68
5.92
16.22
28.02
41.13
55.16
69.38
82.48
92.59
97.67
96.19
87.77
73.62
56.38
39.46
25.97
17.76
14.92
16.02
18.76
20.92
20.91
17.97
11.87
2.72
-9.10
-22.73
-36.62
-48.72
-56.99
-60.12
-57.93
-51.44
-42.34
-32.45
-23.24
-15.75
-10.72
-8.75
-10.08
-14.40
-20.52
-26.54
-30.37
-30.55
-27.00
-21.19
-15.68
-13.10
-15.07
-21.44
-30.37
-38.93
-44.21
-44.31
-38.79
-28.70
-15.94
-2.60
9.58
19.35
25.88
28.60
27.15
21.66
12.96
2.66
-7.23
-14.88
-19.23
-20.27
-18.96
-16.57
-14.15
-11.95
-9.64
-6.54
-2.30
2.87
8.33
13.36
17.61
21.20
24.31
26.71
27.58
25.74
20.52
12.35
2.94
-5.29
-10.30
-11.32
-9.12
-5.49
-2.48
-1.49
-3.13
-7.23
-13.31
-20.91
-29.66
-39.18
-48.86
-57.89
-65.39
-70.60
-73.22
-73.37
-71.66
-68.80
-65.27
-61.08
-55.74
-48.54
-39.06
-27.42
-14.25
-0.42
13.35
26.60
39.05
50.30
59.72
66.54
70.20
70.68
68.46
64.44
59.49
54.19
48.92
44.00
39.99
37.59
37.43
39.62
43.51
47.81
50.88
51.35
48.49
42.51
34.48
25.98
18.63
13.57
11.28
11.51
13.61
16.85
20.82
25.41
30.68
36.56
42.82
49.22
55.63
62.09
68.46
74.05
77.57
77.53
72.85
63.40
50.08
34.56
18.66
3.96
-8.42
-17.76
-23.73
-26.28
-25.74
-22.81
-18.31
-13.12
-8.08
-3.99
-1.73
-2.14
-5.72
-12.44
-21.59
-32.10
-42.70
-52.11
-59.17
-62.87
-62.52
-57.95
-49.65
-38.72
-26.64
-14.99
-5.27
1.36
4.31
3.76
0.77
-3.00
-5.76
-6.38
-5.02
-3.20
-3.37
-7.99
-18.52
-34.89
-55.33
-76.76
-95.41
-107.58
-110.42
-102.67
-85.05
-60.30
-32.46
-5.84
16.03
31.19
39.25
41.08
38.21
32.32
25.03
17.82
11.91
8.10
6.53
6.71
7.88
9.43
11.21
13.49
16.53
20.40
25.01
30.46
37.27
46.18
57.57
70.69
83.43
92.74
95.67
90.55
77.64
59.08
38.03
17.77
0.76
-11.66
-19.28
-22.75
-23.24
-22.13
-20.91
-21.00
-23.79
-30.24
-40.64
-54.07
-68.45
-80.98
-89.06
-91.38
-88.48
-82.47
-75.89
-70.36
-65.81
-60.53
-52.48
-40.51
-25.19
-8.63
6.43
17.59
23.32
22.78
15.53
1.63
-17.81
-39.68
-58.68
-68.46
-63.94
-43.85
-11.78
24.93
57.94
81.20
92.70
94.20
89.08
80.17
68.37
53.15
34.04
11.89
-10.69
-30.36
-44.39
-51.60
-52.32
-47.68
-38.77
-26.21
-10.40
8.09
28.13
47.78
64.76
77.02
83.28
83.38
78.07
68.67
56.70
43.70
31.16
20.57
13.12
9.43
9.20
11.34
14.21
16.36
16.85
15.44
12.27
7.37
0.60
-8.27
-19.00
-30.58
-41.30
-49.29
-53.20
-52.67
-48.52
-42.46
-36.52
-32.48
-31.34
-33.11
-36.85
-40.99
-43.83
-44.03
-41.02
-35.14
-27.70
-20.75
-16.65
-17.36
-23.69
-34.62
-47.25
-57.56
-61.60
-56.98
-43.66
-23.87
-1.01
21.61
41.82
58.73
72.25
82.27
88.19
89.04
84.03
73.15
57.47
38.95
19.96
2.65
-11.43
-21.51
-27.37
-29.05
-26.80
-21.05
-12.52
-2.31
8.27
18.12
26.72
34.24
41.04
47.13
51.57
52.59
48.40
38.23
23.11
5.67
-10.67
-23.02
-29.77
-30.83
-27.18
-20.31
-11.74
-2.93
4.75
10.09
12.12
10.36
5.04
-3.01
-12.42
-21.52
-28.70
-32.77
-33.34
-30.90
-26.67
-22.03
-18.12
-15.42
-13.90
-13.19
-12.85
-12.40
-11.26
-8.69
-4.10
2.52
10.24
17.15
21.02
20.14
14.13
4.26
-6.91
-16.39
-21.74
-21.71
-16.52
-7.49
3.40
14.03
22.59
27.73
28.74
25.61
19.11
10.58
1.76
-5.66
-10.46
-12.20
-11.24
-8.54
-5.13
-1.66
1.68
5.15
8.98
13.16
17.45
21.70
26.16
31.48
38.43
47.25
57.18
66.34
72.20
72.35
65.33
51.36
32.37
11.64
-7.08
-20.49
-26.59
-25.07
-17.38
-6.11
5.61
14.87
19.48
18.41
11.93
1.48
-10.66
-21.99
-30.43
-34.86
-35.22
-32.30
-27.36
-21.67
-16.26
-11.71
-8.18
-5.51
-3.51
-2.10
-1.41
-1.64
-2.73
-4.23
-5.36
-5.45
-4.41
-3.10
-3.15
-6.31
-13.71
-25.25
-39.51
-54.11
-66.47
-74.49
-77.04
-74.03
-66.24
-55.12
-42.43
-30.12
-20.14
-14.14
-13.16
-17.28
-25.49
-35.89
-46.19
-54.32
-58.88
-59.32
-55.89
-49.48
-41.35
-32.99
-25.75
-20.38
-16.58
-12.92
-7.21
2.63
17.66
37.38
59.86
82.43
102.56
118.45
129.00
133.52
131.44
122.31
106.43
85.36
62.12
40.74
25.09
17.70
18.96
26.99
38.52
49.90
58.20
61.80
60.40
54.69
45.83
35.00
23.19
11.12
-0.54
-11.11
-19.76
-25.62
-28.03
-26.74
-22.16
-15.33
-7.62
-0.41
5.34
9.22
11.46
12.73
13.97
16.28
20.88
28.83
40.82
56.75
75.57
95.24
113.22
127.09
135.20
137.04
133.19
124.79
112.96
98.26
80.67
59.97
36.38
10.96
-14.36
-37.34
-56.27
-70.52
-80.61
-87.74
-93.08
-97.20
-100.01
-101.14
-100.36
-97.80
-93.83
-88.80
-82.74
-75.49
-66.92
-57.20
-46.79
-36.26
-25.97
-16.06
-6.50
2.58
10.58
16.40
18.72
16.56
9.86
-0.22
-11.49
-21.35
-27.62
-29.24
-26.42
-20.41
-12.93
-5.62
0.30
4.08
5.47
4.68
2.30
-0.83
-3.92
-6.48
-8.48
-10.13
-11.56
-12.61
-12.83
-11.90
-9.86
-7.31
-5.13
-3.94
-3.71
-3.67
-2.68
0.13
4.92
11.02
17.30
22.65
26.22
27.36
25.42
19.56
9.16
-5.57
-23.02
-40.15
-53.28
-59.34
-57.03
-47.25
-32.70
-16.69
-2.16
9.07
16.26
19.41
18.84
14.94
8.33
-0.06
-8.96
-16.88
-22.55
-25.27
-25.08
-22.60
-18.72
-14.05
-8.81
-2.93
3.65
10.74
17.88
24.64
30.92
37.01
43.46
50.51
57.58
63.14
64.95
60.96
50.11
33.01
11.94
-9.63
-27.98
-40.03
-44.09
-40.28
-30.39
-17.50
-5.13
3.53
6.43
3.08
-5.48
-17.07
-29.09
-39.24
-45.88
-48.22
-46.26
-40.69
-32.74
-23.91
-15.59
-8.86
-4.22
-1.76
-1.31
-2.63
-5.27
-8.50
-11.26
-12.30
-10.76
-6.64
-1.22
3.14
3.65
-1.87
-13.98
-31.07
-49.61
-65.01
-72.99
-71.04
-59.11
-39.60
-16.35
6.52
25.81
39.65
47.43
49.32
45.93
38.12
27.13
14.60
2.40
-7.82
-15.06
-19.20
-20.80
-20.63
-19.12
-16.16
-11.34
-4.45
4.14
13.52
22.67
31.01
38.89
47.28
57.04
68.12
79.09
87.35
90.05
85.28
72.91
54.82
34.30
15.09
0.17
-8.91
-12.23
-11.12
-7.54
-3.43
-0.40
0.35
-2.01
-7.78
-16.57
-27.16
-37.58
-45.66
-49.77
-49.48
-45.68
-40.15
-34.78
-30.74
-28.22
-26.64
-25.27
-23.78
-22.31
-21.19
-20.45
-19.67
-18.04
-14.97
-10.74
-6.58
-4.43
-6.02
-12.06
-21.67
-32.59
-41.82
-46.65
-45.46
-38.10
-25.80
-10.73
4.56
17.73
27.06
31.73
31.91
28.57
23.13
16.98
11.14
6.15
2.17
-0.75
-2.56
-3.25
-2.96
-2.04
-0.90
0.22
1.35
2.65
4.16
5.63
6.70
7.40
8.54
11.68
18.43
29.45
43.61
57.83
68.06
70.88
64.99
51.82
34.97
18.60
5.83
-2.20
-6.31
-8.24
-9.71
-11.75
-14.79
-19.13
-25.23
-33.56
-44.03
-55.56
-66.08
-73.23
-75.38
-72.25
-65.00
-55.61
-46.01
-37.42
-30.15
-23.85
-18.07
-12.60
-7.63
-3.52
-0.50
1.53
3.04
4.59
6.63
9.23
12.06
14.51
15.88
15.73
14.13
11.71
9.47
8.45
9.28
12.01
15.99
20.24
23.80
26.01
26.53
25.27
22.20
17.28
10.54
2.30
-6.76
-15.68
-23.40
-28.97
-31.87
-32.07
-30.02
-26.41
-21.93
-17.04
-11.90
-6.56
-1.14
4.12
8.92
13.11
16.86
20.59
24.66
29.03
32.98
35.27
34.54
30.05
22.18
12.53
3.47
-2.67
-4.40
-1.52
4.93
13.02
20.68
26.16
28.37
26.99
22.29
14.97
5.93
-3.74
-12.99
-20.87
-26.62
-29.82
-30.37
-28.61
-25.25
-21.17
-17.06
-13.13
-9.11
-4.49
1.06
7.41
14.08
20.63
27.05
33.82
41.58
50.48
59.80
67.86
72.56
72.26
66.44
55.99
42.93
29.73
18.51
10.49
5.81
3.75
3.15
3.00
2.76
2.26
1.49
0.22
-2.06
-5.89
-11.45
-18.24
-25.20
-31.07
-34.95
-36.66
-36.68
-35.73
-34.32
-32.37
-29.35
-24.69
-18.28
-10.64
-2.77
4.35
10.24
15.20
20.05
25.65
32.24
39.00
44.14
45.58
41.77
32.48
19.01
3.76
-10.51
-21.36
-27.23
-27.45
-22.31
-12.94
-1.35
9.68
17.10
18.41
12.53
0.35
-15.45
-31.24
-43.64
-50.59
-51.78
-48.41
-42.52
-36.23
-31.03
-27.58
-25.71
-24.78
-24.07
-23.19
-22.11
-21.33
-21.59
-23.44
-26.47
-28.81
-27.45
-19.38
-3.21
19.59
44.65
66.09
78.57
79.22
68.44
49.52
27.25
6.46
-9.27
-18.21
-20.57
-18.14
-13.48
-9.15
-6.92
-7.49
-10.64
-15.81
-22.37
-29.64
-36.54
-41.70
-43.65
-41.57
-35.75
-27.69
-19.39
-12.50
-7.72
-4.54
-1.68
2.35
8.75
18.12
30.32
44.54
59.28
72.51
81.86
85.12
80.83
68.87
50.71
29.22
8.04
-9.35
-20.40
-24.11
-21.16
-13.61
-4.35
3.63
7.93
7.13
1.13
-9.03
-21.43
-33.88
-44.37
-51.41
-54.23
-52.71
-47.39
-39.35
-30.15
-21.52
-15.01
-11.60
-11.44
-13.91
-17.89
-22.02
-25.01
-25.71
-23.28
-17.30
-8.03
3.43
15.12
24.48
28.96
26.80
17.74
3.43
-12.86
-27.11
-35.75
-36.84
-30.51
-18.84
-4.97
7.95
17.64
22.94
23.71
20.45
13.98
5.33
-4.39
-14.02
-22.42
-28.56
-31.81
-31.93
-29.17
-24.12
-17.36
-9.20
0.27
11.05
22.88
35.15
47.03
57.81
67.17
75.18
81.88
86.84
88.84
86.14
77.36
62.37
42.82
21.83
3.06
-10.54
-17.60
-18.49
-14.88
-9.01
-3.04
1.25
2.51
-0.22
-7.46
-18.96
-33.42
-48.55
-61.60
-69.99
-72.15
-68.01
-58.97
-47.41
-35.83
-26.05
-18.73
-13.52
-9.59
-6.22
-3.10
-0.28
2.13
4.23
6.21
7.97
8.78
7.28
2.02
-7.69
-21.25
-36.49
-50.31
-59.56
-61.97
-56.80
-44.89
-28.32
-9.91
7.54
21.68
30.99
34.85
33.49
27.82
19.15
8.96
-1.23
-10.04
-16.36
-19.46
-18.99
-14.98
-7.79
1.92
13.26
25.09
36.35
46.26
54.55
61.54
67.81
73.74
78.98
82.30
81.92
76.18
64.44
47.58
28.09
9.44
-4.81
-12.05
-11.38
-3.84
7.80
19.96
29.17
33.07
30.78
22.85
10.73
-3.97
-20.10
-37.19
-55.32
-74.76
-95.37
-116.24
-135.25
-149.28
-154.96
-149.88
-133.82
-109.10
-79.82
-50.15
-22.75
1.90
24.70
46.34
65.96
81.13
89.06
88.44
80.52
68.91
58.03
51.23
49.63
52.07
56.17
59.44
60.32
58.45
54.42
49.19
43.50
37.52
30.88
23.09
13.87
3.61
-6.80
-16.24
-23.91
-29.76
-34.33
-38.30
-41.80
-44.10
-43.67
-38.93
-29.16
-14.91
2.10
19.79
36.51
51.57
65.03
77.16
87.83
96.17
100.87
100.60
94.51
82.44
64.92
43.23
19.37
-4.10
-24.41
-39.25
-47.50
-49.58
-47.41
-43.70
-41.10
-41.39
-45.08
-51.46
-58.94
-65.60
-69.73
-70.24
-67.04
-61.08
-54.11
-48.16
-44.82
-44.68
-47.23
-50.99
-54.20
-55.21
-52.97
-47.14
-38.30
-27.87
-18.04
-11.20
-9.21
-12.64
-20.24
-29.16
-35.86
-37.28
-31.93
-20.33
-4.77
11.67
26.21
37.09
43.89
47.17
47.84
46.53
43.32
37.84
29.78
19.36
7.50
-4.36
-14.80
-22.78
-27.98
-30.54
-30.88
-29.27
-25.80
-20.32
-12.68
-2.88
8.74
21.33
33.53
43.57
49.58
50.01
44.22
32.83
17.93
2.87
-8.45
-12.58
-7.65
5.96
25.56
47.00
66.01
79.53
86.26
86.59
81.79
73.20
61.86
48.68
34.83
21.96
11.85
5.83
4.12
5.59
8.17
9.58
8.13
3.22
-4.53
-13.46
-21.35
-25.95
-25.64
-20.01
-10.14
1.52
11.78
17.75
17.77
12.05
2.58
-7.65
-15.65
-19.42
-18.45
-13.65
-6.86
-0.26
4.24
5.34
2.51
-3.97
-13.20
-23.86
-34.47
-43.72
-50.58
-54.50
-55.45
-53.83
-50.29
-45.57
-40.18
-34.30
-27.90
-20.96
-13.62
-6.29
0.64
7.06
13.37
20.31
28.53
38.14
48.46
58.20
65.81
69.92
69.70
64.85
55.72
43.19
28.54
13.35
-0.79
-12.47
-20.69
-25.04
-25.83
-24.13
-21.58
-20.12
-21.33
-25.90
-33.32
-42.02
-50.04
-55.82
-58.74
-59.26
-58.52
-57.76
-57.68
-58.11
