1565963482.00
64.000000
-0.00
-0.00
-0.00
-0.00
-0.00
-0.00
-0.00
-0.00
-0.00
-0.00
0.00
0.01
0.01
-0.00
-0.03
-0.05
-0.05
0.00
0.13
0.36
0.66
1.01
1.37
1.72
2.06
2.40
2.79
3.24
3.80
4.42
5.07
5.69
6.25
6.77
7.30
7.93
8.71
9.73
10.91
12.15
13.33
14.40
15.41
16.51
17.93
19.80
22.36
25.41
28.70
31.92
34.92
37.76
40.73
44.27
48.69
54.38
61.01
68.09
75.04
81.52
87.61
93.79
100.77
109.13
119.43
131.23
143.75
156.09
167.67
178.49
189.17
201.10
213.02
227.29
244.61
265.10
287.54
308.93
324.82
330.49
322.56
300.23
266.05
224.06
178.70
133.14
88.75
45.50
3.01
-38.54
-78.25
-114.49
-146.26
-173.13
-195.61
-214.47
-230.33
-243.30
-252.95
-258.75
-260.24
-257.87
-252.93
-247.34
-243.11
-241.77
-243.80
-248.41
-254.57
-261.69
-270.16
-280.88
-294.30
-309.38
-323.48
-333.09
-335.32
-328.93
-314.60
-294.13
-269.33
-241.61
-211.98
-181.97
-153.83
-130.25
-112.96
-101.51
-93.11
-83.59
-69.56
-50.33
-28.56
-9.11
3.20
6.10
1.15
-6.98
-12.65
-11.88
-3.89
8.95
22.78
34.29
42.10
46.95
50.56
54.41
58.60
61.84
62.12
57.98
49.61
39.01
29.46
24.04
24.32
29.66
37.91
46.82
55.30
64.00
74.45
87.50
102.05
114.84
121.69
119.46
107.51
87.89
64.15
39.82
17.43
-1.35
-14.90
-21.21
-18.56
-6.95
10.51
27.80
37.88
35.72
20.64
-3.27
-28.92
-49.04
-58.78
-56.63
-43.96
-23.93
-0.52
21.85
38.67
46.15
42.13
27.06
4.13
-21.46
-43.97
-58.55
-62.33
-54.85
-38.18
-16.58
4.34
19.06
23.89
18.25
4.89
-11.16
-24.54
-31.31
-29.68
-19.58
-1.80
22.58
52.00
83.91
114.58
139.89
156.69
164.17
164.22
160.42
156.64
155.48
157.75
162.65
168.26
172.11
171.39
163.26
145.43
117.22
80.20
38.44
-2.41
-36.55
-60.07
-72.11
-74.91
-73.47
-73.22
-78.79
-92.88
-115.55
-144.48
-175.49
-203.61
-224.30
-234.57
-233.48
-222.07
-202.68
-178.18
-151.42
-125.08
-101.39
-81.89
-67.10
-56.29
-47.90
-40.29
-32.44
-24.35
-16.76
-10.54
-6.13
-3.42
-1.86
-0.89
-0.35
-0.30
-0.95
-2.36
-4.35
-6.63
-8.87
-10.82
-12.46
-14.00
-15.87
-18.35
-21.16
-23.13
-22.15
-15.73
-1.98
19.38
46.42
75.29
101.31
120.60
131.41
134.63
133.29
131.09
130.84
133.39
137.76
142.15
145.20
146.73
147.36
147.71
147.54
145.86
141.86
135.77
128.99
123.26
119.28
115.95
110.83
101.57
87.43
69.78
51.47
35.31
22.81
13.74
6.49
-0.92
-10.09
-21.81
-36.07
-52.18
-68.98
-84.92
-98.34
-107.91
-112.93
-113.51
-110.42
-104.77
-97.69
-90.15
-82.77
-75.87
-69.41
-63.15
-56.75
-49.90
-42.43
-34.26
-25.39
-15.75
-5.23
6.20
18.35
30.65
42.22
52.03
59.13
62.86
62.93
59.42
52.78
43.80
33.57
23.33
14.20
6.88
1.39
-2.90
-6.99
-11.74
-17.55
-24.24
-31.23
-37.91
-43.92
-49.14
-53.43
-56.46
-57.60
-56.25
-52.12
-45.57
-37.58
-29.38
-22.10
-16.43
-12.50
-10.02
-8.53
-7.52
-6.54
-5.18
-3.03
0.24
4.73
10.19
15.99
21.24
25.14
27.28
27.74
27.03
25.81
24.56
23.51
22.63
21.85
21.17
20.68
20.48
20.57
20.76
20.59
19.53
17.07
12.95
7.34
0.92
-5.18
-9.70
-11.62
-10.48
-6.65
-1.17
4.52
9.06
11.61
11.91
10.30
7.34
3.61
-0.50
-4.66
-8.53
-11.63
-13.27
-12.78
-9.87
-5.03
0.28
3.98
4.22
0.32
-6.71
-14.47
-20.28
-22.40
-20.77
-16.78
-12.25
-8.33
-5.22
-2.54
-0.09
1.56
1.40
-1.36
-6.54
-13.00
-19.20
-23.91
-26.71
-27.93
-28.43
-29.30
-31.79
-37.16
-46.36
-59.45
-75.25
-91.45
-105.21
-114.10
-116.73
-112.92
-103.58
-90.50
-76.48
-65.17
-60.24
-63.81
-74.90
-89.00
-99.43
-99.91
-87.15
-61.87
-28.14
8.47
42.83
71.02
90.44
99.69
98.73
89.20
74.36
58.32
44.69
35.74
32.23
34.04
41.12
53.67
71.63
93.98
118.62
142.65
163.66
180.46
193.31
203.03
211.06
218.84
227.35
238.26
251.59
265.69
277.71
283.68
280.85
268.45
247.65
220.86
189.75
155.40
118.13
77.94
35.26
-8.50
-51.09
-90.09
-123.44
-149.46
-167.36
-177.02
-179.11
-175.36
-168.51
-161.92
-158.65
-160.40
-166.98
-176.41
-185.71
-191.80
-192.26
-185.55
-171.18
-149.91
-124.04
-97.41
-74.65
-59.72
-54.39
-57.47
-65.20
-72.72
-75.74
-71.68
-59.80
-40.88
-16.75
9.98
35.95
57.39
70.87
74.29
67.91
54.35
37.99
23.60
15.05
14.51
22.04
35.70
51.76
65.52
72.57
70.26
58.76
41.07
21.95
6.11
-3.34
-5.69
-2.39
3.81
10.01
13.86
14.11
10.65
4.49
-2.62
-8.79
-12.71
-14.14
-13.87
-13.19
-13.13
-13.99
-15.36
-16.55
-17.06
-16.82
-16.11
-15.28
-14.48
-13.67
-12.64
-11.20
-9.25
-6.68
-3.37
1.04
6.96
14.62
23.65
33.04
41.29
47.14
50.22
51.34
52.00
53.40
55.71
57.74
57.71
54.44
48.41
41.96
38.32
40.31
48.99
63.28
80.42
96.71
108.60
113.40
109.85
98.51
82.00
64.92
52.85
50.49
59.51
77.42
98.06
113.90
118.99
111.13
92.18
66.42
38.08
9.42
-19.46
-49.64
-81.63
-114.06
-144.19
-169.19
-187.26
-197.98
-202.54
-202.48
-199.60
-196.41
-196.36
-203.35
-220.36
-247.07
-278.30
-304.65
-315.76
-305.00
-273.04
-228.07
-182.42
-147.02
-126.93
-120.26
-120.85
-122.40
-121.61
-118.60
-114.76
-110.28
-103.14
-90.34
-70.17
-44.15
-16.94
5.35
18.02
20.25
15.61
10.39
10.90
20.83
40.01
64.99
90.85
113.31
129.98
140.32
144.88
144.39
139.60
131.66
122.47
114.56
110.05
109.63
112.01
114.41
113.76
107.87
96.23
80.16
62.34
46.07
34.39
29.23
30.71
37.00
44.74
50.17
50.36
44.39
33.64
21.41
11.78
8.09
11.68
21.16
32.71
41.35
42.84
35.42
20.99
4.78
-6.49
-7.74
1.76
17.82
33.45
42.68
43.62
38.83
32.98
29.53
28.85
28.79
27.18
23.90
21.06
21.05
24.19
27.91
28.18
22.46
11.76
0.46
-6.30
-5.77
0.92
9.61
15.49
15.63
10.12
1.50
-6.98
-13.08
-16.43
-18.19
-19.95
-22.58
-25.60
-27.48
-26.66
-22.50
-15.92
-9.03
-4.15
-2.76
-4.87
-9.06
-13.33
-16.08
-16.87
-16.47
-16.16
-16.97
-19.11
-22.03
-24.78
-26.59
-27.19
-26.77
-25.79
-24.69
-23.62
-22.44
-20.82
-18.49
-15.39
-11.70
-7.56
-2.90
2.57
9.13
16.78
24.99
32.80
39.16
43.41
45.68
46.69
47.28
47.75
47.36
44.85
39.49
32.18
25.70
23.47
27.43
36.49
46.58
52.87
52.52
46.40
38.55
33.74
34.81
41.39
50.80
59.96
66.96
71.33
73.19
72.23
67.52
58.17
44.16
26.87
8.66
-7.90
-20.83
-29.46
-34.75
-39.09
-45.56
-56.63
-72.88
-92.44
-111.72
-126.91
-135.69
-137.90
-135.11
-129.34
-121.92
-113.29
-103.23
-91.48
-77.91
-62.63
-45.96
-28.77
-12.82
-0.61
5.47
4.50
-1.98
-10.13
-15.47
-14.93
-8.33
1.71
11.46
18.21
21.45
22.74
24.21
26.96
30.26
32.21
31.23
27.51
23.36
22.07
25.80
33.93
42.88
47.69
44.65
33.28
16.81
0.58
-10.54
-14.39
-12.17
-7.25
-3.12
-1.55
-2.20
-3.35
-3.20
-0.94
2.97
7.04
9.55
9.43
6.91
3.73
2.64
6.04
14.66
26.65
38.11
44.91
44.97
39.69
33.41
31.11
35.67
46.27
58.97
68.88
72.64
69.83
62.53
53.74
45.80
39.61
35.01
31.48
28.52
25.55
21.49
14.95
5.03
-7.73
-21.21
-32.39
-38.84
-40.00
-37.40
-33.86
-31.99
-33.07
-36.67
-41.19
-44.92
-46.83
-46.89
-45.85
-44.74
-44.33
-44.80
-45.66
-46.21
-46.01
-45.23
-44.52
-44.37
-44.61
-44.29
-42.31
-38.29
-33.04
-28.28
-25.62
-25.62
-27.42
-29.27
-29.51
-27.40
-23.33
-18.57
-14.60
-12.49
-12.64
-14.55
-17.09
-18.84
-18.66
-16.13
-11.71
-6.55
-1.96
1.13
2.67
3.53
5.20
9.22
16.31
25.80
35.64
43.21
46.60
45.87
43.23
41.99
44.75
51.78
60.87
68.61
72.51
72.22
69.40
66.22
63.61
60.65
55.19
45.48
31.48
15.05
-0.99
-14.33
-24.19
-31.34
-37.43
-43.99
-51.79
-60.61
-69.44
-76.75
-80.96
-80.91
-76.25
-67.67
-56.75
-45.42
-35.14
-26.45
-18.86
-11.52
-3.94
3.49
9.70
13.66
15.16
15.16
15.41
17.57
22.29
28.94
35.96
41.60
44.80
45.52
44.67
43.57
43.52
45.40
49.52
55.57
62.65
69.41
74.40
76.54
75.39
71.26
64.99
57.51
49.55
41.43
33.16
24.52
15.23
4.85
-6.99
-20.53
-35.50
-50.91
-64.92
-75.04
-78.88
-74.92
-63.33
-46.30
-27.58
-11.42
-1.18
1.65
-2.18
-10.34
-20.05
-29.11
-36.39
-41.74
-45.39
-47.50
-48.10
-47.13
-44.69
-40.99
-36.24
-30.57
-24.18
-17.50
-11.18
-5.84
-1.53
2.62
8.21
16.97
29.71
45.74
62.78
77.73
87.67
90.86
87.19
77.96
65.23
51.20
37.71
26.21
17.84
13.27
12.46
14.60
18.09
21.10
22.55
22.72
23.51
27.48
36.33
49.36
63.01
72.14
72.35
62.13
43.62
21.59
1.23
-13.81
-22.05
-23.56
-18.88
-8.46
6.74
24.03
38.42
43.66
34.40
8.45
-31.83
-79.82
-126.13
-160.75
-175.32
-164.86
-129.36
-74.07
-8.49
56.01
109.42
145.49
162.73
163.48
152.02
132.50
107.64
78.73
46.08
9.97
-28.76
-68.52
-106.82
-140.33
-165.08
-177.16
-174.34
-157.92
-133.24
-109.20
-95.87
-101.01
-126.62
-167.58
-212.96
-250.08
-268.97
-265.12
-239.86
-198.40
-147.75
-95.19
-47.71
-11.27
10.41
17.53
14.79
9.81
10.00
19.45
37.60
60.31
82.70
101.51
115.92
126.37
133.18
135.88
133.72
126.97
117.59
108.75
103.42
102.97
106.60
111.74
115.29
114.97
110.10
101.80
92.19
83.27
75.79
68.94
60.97
50.26
36.40
20.38
4.01
-10.92
-23.39
-33.26
-40.73
-45.85
-48.40
-48.15
-45.39
-41.12
-36.79
-33.68
-32.31
-32.16
-31.96
-30.30
-26.30
-20.05
-12.60
-5.43
0.21
3.86
6.06
7.98
10.67
14.31
17.94
19.81
18.38
13.17
5.24
-3.30
-10.28
-14.28
-15.11
-13.44
-10.24
-6.26
-1.87
2.57
6.50
9.03
9.41
7.57
4.38
1.46
0.59
2.91
8.37
15.64
22.55
26.98
27.75
25.08
20.40
15.60
12.19
10.63
10.40
10.49
9.92
8.18
5.30
1.57
-2.54
-6.35
-8.87
-9.15
-7.11
-4.05
-2.28
-3.73
-8.56
-14.96
-20.21
-22.46
-21.97
-20.84
-21.50
-24.97
-30.17
-34.66
-36.37
-34.95
-31.78
-28.98
-27.96
-28.82
-30.63
-32.37
-33.65
-34.67
-36.03
-38.29
-41.59
-45.36
-48.22
-48.36
-44.31
-35.65
-23.31
-9.30
4.13
15.34
23.66
29.29
32.75
34.50
34.86
34.34
33.78
34.24
36.50
40.70
46.09
51.33
55.08
56.48
55.28
51.70
46.08
38.82
30.31
21.10
11.91
3.62
-3.00
-7.45
-9.81
-10.75
-11.37
-12.86
-16.00
-20.96
-27.16
-33.47
-38.51
-41.01
-40.18
-35.89
-28.82
-20.29
-11.89
-5.03
-0.45
1.87
2.56
2.43
2.20
2.33
3.16
5.07
8.36
13.01
18.40
23.31
26.31
26.46
23.79
19.38
14.83
11.56
10.18
10.45
11.58
12.63
12.97
12.35
10.77
8.39
5.43
2.20
-0.91
-3.46
-5.12
-5.72
-5.38
-4.44
-3.32
-2.50
-2.31
-2.94
-4.30
-6.06
-7.62
-8.37
-7.91
-6.26
-3.91
-1.69
-0.40
-0.55
-2.13
-4.59
-7.14
-8.94
-9.40
-8.35
-6.03
-3.05
-0.21
1.69
2.16
1.06
-1.31
-4.38
-7.50
-10.12
-11.93
-12.83
-13.00
-12.79
-12.69
-13.22
-14.72
-17.28
-20.66
-24.40
-28.05
-31.38
-34.40
-37.35
-40.52
-44.08
-48.04
-52.26
-56.57
-60.84
-65.04
-69.21
-73.35
-77.39
-80.91
-83.18
-83.05
-79.14
-70.07
-54.91
-33.70
-7.82
19.97
46.11
67.09
80.51
85.82
84.45
79.34
73.97
71.18
72.37
77.32
84.70
92.84
100.29
105.95
109.11
109.37
106.27
99.64
89.65
77.07
63.25
49.61
37.13
25.90
15.29
4.54
-6.42
-16.61
-24.26
-27.76
-26.51
-21.35
-14.30
-7.58
-2.71
-0.06
0.76
0.09
-1.86
-4.53
-6.33
-4.66
2.87
16.64
33.88
49.14
56.52
52.89
39.66
22.43
8.42
3.04
7.41
18.16
29.73
37.50
39.94
38.87
37.73
39.42
44.70
52.00
57.93
58.26
49.14
28.27
-3.75
-42.16
-78.20
-101.51
-104.27
-85.48
-52.72
-19.92
-1.16
-3.97
-25.88
-56.32
-83.03
-98.79
-104.75
-108.82
-120.62
-146.12
-185.00
-231.41
-276.46
-310.83
-326.40
-317.15
-280.47
-218.81
-140.27
-56.87
19.58
81.98
129.54
165.96
195.21
218.70
235.67
245.72
251.03
256.09
264.58
276.10
285.16
284.34
269.27
242.88
215.76
201.24
207.95
234.46
268.15
290.38
285.45
247.97
184.95
112.27
45.42
-8.42
-52.88
-97.82
-150.67
-210.42
-267.54
-309.19
-326.59
-318.80
-292.08
-255.62
-217.16
-181.20
-149.88
-124.86
-108.32
-102.40
-107.71
-122.22
-141.17
-158.35
-167.68
-164.76
-148.18
-119.40
-81.97
-40.67
-0.47
33.75
57.07
64.88
53.59
22.12
-26.18
-82.68
-134.53
-167.74
-171.89
-144.59
-93.51
-34.69
13.08
35.81
30.16
4.67
-24.60
-41.67
-37.68
-13.77
21.53
57.73
87.37
107.67
119.06
122.57
118.24
105.59
85.37
60.82
37.29
20.13
12.03
11.71
14.83
16.61
14.56
9.76
5.75
6.03
11.74
20.87
29.53
34.21
33.88
30.49
27.60
28.60
35.13
46.82
62.23
80.04
99.46
119.77
139.60
156.58
167.97
171.64
166.78
154.47
137.19
117.86
98.93
81.72
66.31
51.92
37.60
22.83
7.85
-6.45
-18.95
-28.77
-35.67
-40.06
-42.83
-44.92
-46.98
-49.20
-51.30
-52.85
-53.51
-53.16
-51.99
-50.37
-48.66
-47.10
-45.74
-44.45
-43.08
-41.51
-39.71
-37.75
-35.73
-33.76
-31.87
-30.08
-28.37
-26.71
-25.09
-23.50
-21.96
-20.46
-19.02
-17.62
-16.25
-14.90
-13.61
-12.39
-11.29
-10.34
-9.49
-8.72
-8.01
-7.29
-6.55
-5.79
-5.05
-4.41
-3.89
-3.50
-3.19
-2.88
-2.49
-1.96
-1.34
-0.70
-0.17
0.17
0.32
0.39
0.58
1.04
1.87
2.99
4.15
5.04
5.39
5.24
4.86
4.72
5.27
6.73
8.90
11.17
12.84
13.34
12.67
11.39
10.45
10.75
12.73
16.03
19.66
22.35
23.11
21.84
19.28
16.71
15.11
14.84
15.23
14.86
12.15
5.75
-5.07
-20.48
-39.82
-61.18
-80.94
-94.42
-97.24
-86.74
-65.23
-38.23
-12.67
6.02
15.88
18.63
17.82
16.52
15.76
14.66
12.12
8.11
4.08
2.18
3.85
8.79
14.95
19.71
20.96
18.19
12.88
7.49
4.29
4.68
8.59
14.75
21.17
25.57
25.92
20.74
9.53
-6.66
-24.91
-41.12
-51.13
-52.42
-45.20
-32.10
-17.06
-3.64
6.29
12.67
16.44
18.50
19.15
18.15
15.56
12.11
9.12
7.91
9.24
12.43
16.01
18.53
18.82
16.84
13.41
9.79
7.29
7.20
10.29
16.25
22.92
26.36
22.25
8.32
-13.96
-39.03
-59.24
-68.31
-64.06
-48.81
-27.74
-6.13
12.05
23.93
26.61
17.33
-5.21
-38.73
-76.21
-107.33
-122.34
-115.52
-87.69
-45.26
2.45
46.69
81.69
105.16
117.51
120.84
117.90
111.66
104.90
99.52
95.99
93.40
89.73
82.57
70.30
53.00
32.57
11.87
-6.84
-23.07
-38.16
-53.98
-71.80
-90.74
-107.92
-119.82
-123.90
-119.74
-109.01
-94.41
-78.30
-62.06
-46.25
-31.36
-18.35
-8.61
-3.42
-3.22
-7.53
-14.79
-23.06
-30.62
-36.47
-40.48
-43.04
-44.80
-46.14
-47.15
-47.62
-47.22
-45.86
-43.81
-41.83
-40.73
-41.12
-43.10
-46.30
-49.82
-52.37
-52.63
-49.51
-42.47
-31.29
-15.90
4.12
28.07
54.36
81.08
106.13
127.31
142.38
149.66
148.08
137.37
119.02
93.89
63.10
28.11
-9.24
-47.10
-83.31
-115.56
-141.67
-159.86
-168.94
-168.17
-157.42
-135.71
-104.43
-66.45
-25.39
14.97
51.43
81.63
104.40
119.59
127.80
129.86
127.03
120.72
112.33
103.03
93.59
84.53
76.15
68.55
61.44
54.65
48.16
42.03
36.37
31.25
26.70
22.71
19.24
16.05
13.01
10.10
7.35
4.84
2.63
0.74
-0.83
-2.11
-3.23
-4.26
-5.25
-6.18
-7.05
-7.78
-8.40
-8.89
-9.26
-9.55
-9.78
-9.97
-10.11
-10.21
-10.23
-10.18
-10.07
-9.90
-9.65
-9.36
-9.03
-8.68
-8.33
-7.98
-7.52
-7.05
-6.60
-6.18
-5.79
-5.41
-5.07
-4.75
-4.44
-4.16
-3.92
-3.70
-3.49
-3.30
-3.09
-2.91
-2.73
-2.59
-2.49
-2.45
-2.44
-2.43
-2.41
-2.34
-2.25
-2.15
-2.05
-2.02
-2.03
-2.07
-2.12
-2.12
-2.06
-1.95
-1.84
-1.75
-1.73
-1.80
-1.89
-1.98
-1.99
-1.88
-1.67
-1.47
-1.40
-1.53
-1.90
-2.41
-2.88
-3.14
-3.08
-2.76
-2.41
-2.27
-2.56
-3.33
-4.37
-5.32
-5.85
-5.76
-5.15
-4.39
-3.96
-4.20
-5.16
-6.54
-7.79
-8.46
-8.27
-7.36
-6.08
-4.87
-4.09
-4.03
-4.94
-6.90
-9.55
-11.75
-11.70
-7.44
2.22
16.80
34.04
50.73
63.97
72.27
76.05
76.97
76.79
76.69
76.76
76.55
75.66
74.20
72.53
70.49
67.07
60.35
48.82
32.24
12.26
-8.02
-25.28
-37.37
-44.03
-47.08
-49.17
-52.27
-57.07
-62.63
-67.42
-70.08
-70.20
-68.05
-64.56
-60.52
-56.37
-52.67
-50.36
-50.61
-54.15
-60.19
-65.99
-67.66
-62.00
-48.30
-29.11
-9.19
6.67
15.84
18.74
17.99
16.40
15.56
15.41
14.96
13.53
11.40
9.60
9.11
10.11
12.06
13.86
14.44
13.45
11.23
8.69
6.75
6.06
6.60
7.85
8.96
9.28
8.53
6.94
5.12
3.68
3.02
3.13
3.72
4.28
4.42
4.00
3.16
2.18
1.39
0.97
0.93
1.11
1.30
1.34
1.15
0.81
0.42
0.09
-0.12
-0.24
-0.28
-0.32
-0.39
-0.53
-0.70
-0.92
-1.15
-1.41
-1.70
-1.99
-2.32
-2.67
-3.06
-3.47
-3.91
-4.39
-4.92
-5.51
-6.16
-6.88
-7.67
-8.54
-9.48
-10.51
-11.61
-12.78
-14.06
-15.43
-16.88
-18.43
-20.07
-21.81
-23.64
-25.56
-27.58
-29.67
-31.78
-33.86
-35.79
-37.45
-38.65
-39.21
-38.95
-37.68
-35.29
-31.66
-26.78
-20.68
-13.49
-5.50
3.11
12.00
20.73
28.86
35.94
41.56
45.50
47.60
47.89
46.62
44.27
41.38
38.63
36.68
36.12
37.33
40.40
45.10
50.89
56.96
62.25
65.67
66.28
63.38
56.69
46.25
32.52
16.00
-1.91
-19.92
-36.86
-51.80
-64.00
-73.02
-78.74
-81.28
-80.90
-77.97
-72.95
-66.34
-58.53
-50.10
-41.16
-31.91
-22.62
-13.73
-5.69
0.89
5.31
7.01
5.57
0.86
-7.07
-17.83
-30.87
-44.91
-58.63
-70.69
-79.83
-85.00
-85.52
-81.28
-72.42
-59.62
-43.84
-26.34
-8.76
7.51
21.40
32.16
39.36
42.90
42.88
39.85
34.49
27.02
17.97
7.81
-3.11
-14.78
-27.40
-41.45
-57.09
-74.13
-92.72
-112.00
-130.69
-147.18
-159.91
-167.68
-169.86
-165.89
-155.34
-139.17
-117.61
-90.97
-59.78
-24.82
12.71
47.59
75.78
99.02
117.53
132.84
147.22
163.47
184.37
212.11
248.13
289.18
333.29
372.38
401.16
416.43
417.44
405.45
382.81
351.83
314.48
272.85
228.14
183.16
141.20
105.35
77.70
58.82
47.97
43.50
42.91
41.59
34.51
16.81
-14.05
-56.58
-105.06
-151.56
-188.84
-213.07
-225.08
-228.05
-225.42
-219.19
-209.54
-196.32
-180.50
-164.44
-151.31
-143.85
-142.87
-147.00
-152.75
-154.92
-148.14
-128.78
-96.84
-56.34
-14.53
20.81
44.31
54.81
55.19
50.12
42.39
34.28
25.45
14.80
2.42
-9.64
-18.33
-21.41
-18.82
-12.92
-7.01
-4.15
-5.38
-9.46
-13.57
-14.78
-11.30
-2.80
9.34
23.30
37.07
48.90
57.26
60.73
58.32
49.13
34.34
16.07
-3.30
-22.26
-40.46
-58.10
-74.47
-87.12
-91.56
-83.25
-60.44
-25.84
13.51
48.70
72.17
80.98
77.69
68.46
59.66
55.01
54.79
56.86
58.66
59.01
58.40
58.34
60.17
64.28
70.17
77.01
84.62
93.32
102.96
111.90
116.33
111.51
94.05
64.09
26.14
-12.32
-43.86
-63.97
-72.35
-72.11
-67.46
-61.66
-56.04
-50.58
-45.04
-39.75
-35.62
-33.35
-32.86
-33.19
-33.06
-31.33
-27.78
-23.08
-18.43
-15.02
-13.53
-13.86
-15.25
-16.70
-17.41
-17.09
-16.05
-14.89
-14.30
-14.76
-16.41
-19.11
-22.56
-26.45
-30.53
-34.64
-38.59
-42.35
-46.08
-50.22
-55.33
-62.00
-70.48
-80.57
-91.59
-102.44
-112.26
-120.72
-128.22
-135.51
-143.32
-151.73
-159.73
-165.89
-167.71
-162.78
-149.86
-129.22
-102.68
-73.25
-44.85
-21.69
-7.54
-3.97
-9.36
-18.73
-25.35
-23.61
-12.05
5.42
21.48
27.67
19.04
-3.80
-35.25
-67.67
-94.67
-113.01
-123.25
-127.08
-126.17
-120.73
-110.12
-93.64
-71.15
-42.85
-9.05
29.95
73.34
118.46
160.51
193.04
210.35
210.27
195.11
172.11
150.08
135.57
130.09
130.95
133.37
133.81
131.49
127.60
123.60
119.34
113.20
103.51
90.30
75.16
60.05
46.07
33.00
20.97
11.78
9.30
17.75
38.85
69.38
102.25
129.05
144.85
149.96
149.39
149.25
151.10
152.69
147.39
128.30
93.62
46.89
-3.76
-49.70
-85.65
-110.42
-124.81
-128.91
-121.21
-100.68
-70.44
-38.94
-17.26
-13.68
-28.56
-53.52
-75.87
-85.09
-77.45
-56.36
-28.95
-2.16
19.41
33.06
36.58
27.85
6.42
-24.43
-57.89
-84.52
-97.20
-94.11
-78.69
-57.25
-36.13
-19.14
-7.38
-0.22
3.56
4.86
4.37
2.91
1.48
0.79
1.30
2.75
4.51
5.77
5.92
4.95
3.21
1.40
0.21
0.06
0.88
2.23
3.46
4.02
3.67
2.58
1.27
0.28
0.04
0.60
1.71
2.90
3.71
3.89
3.52
2.98
2.72
3.11
4.16
5.57
6.87
7.67
7.84
7.58
7.43
7.89
9.27
11.38
13.65
15.39
16.09
15.76
14.90
14.43
15.17
17.51
21.11
24.91
27.73
28.69
27.68
25.34
22.81
20.97
20.12
19.58
17.91
13.65
5.67
-6.71
-23.68
-44.70
-67.91
-89.71
-104.68
-108.37
-98.59
-77.10
-49.39
-22.65
-2.80
7.76
10.43
8.89
6.52
4.97
3.96
2.45
-0.04
-2.79
-4.36
-3.72
-0.90
2.77
5.61
6.14
4.08
0.29
-3.64
-6.13
-6.30
-4.36
-1.52
0.64
0.84
-1.37
-5.37
-9.80
-13.15
-14.44
-13.59
-11.54
-9.75
-9.62
-11.82
-15.99
-20.84
-24.77
-26.52
-25.71
-23.01
-19.85
-17.65
-17.16
-18.08
-19.19
-18.97
-16.14
-9.72
0.97
16.35
35.85
57.06
75.54
85.76
83.44
68.08
44.12
19.45
2.79
-0.77
8.26
24.66
41.59
53.86
59.85
61.06
60.36
59.90
60.22
60.46
59.00
54.39
45.38
31.63
13.76
-6.74
-27.71
-46.97
-62.67
-73.60
-79.37
-80.42
-78.10
-74.53
-72.26
-73.13
-76.75
-79.32
-74.40
-55.77
-21.60
23.19
67.48
98.01
105.38
88.47
54.91
17.27
-12.96
-30.10
-34.89
-31.98
-25.82
-17.87
-6.94
8.52
27.65
46.25
58.21
58.44
45.02
19.48
-14.05
-50.00
-82.71
-107.08
-117.47
-112.08
-92.69
-64.20
-32.91
-4.04
19.97
39.20
55.74
70.22
80.72
84.17
78.20
63.02
41.65
18.52
-2.72
-20.59
-35.76
-49.62
-62.49
-72.77
-77.88
-75.73
-65.80
-49.36
-28.78
-6.99
13.14
28.96
38.17
39.08
31.68
18.33
3.44
-8.02
-13.00
-12.20
-9.80
-11.11
-19.38
-33.69
-49.41
-60.79
-64.40
-61.08
-55.20
-51.79
-53.32
-58.25
-62.27
-61.24
-53.89
-42.60
-31.74
-25.03
-23.16
-23.44
-21.52
-14.21
-1.32
14.31
28.55
38.20
42.33
42.32
40.80
40.25
42.13
46.64
53.13
60.37
66.85
70.93
71.13
66.75
58.42
48.07
38.32
31.47
28.62
29.55
32.99
37.57
42.90
49.96
60.63
76.22
96.45
118.99
140.36
157.14
167.05
169.76
166.48
159.24
150.03
141.07
135.39
136.62
147.07
164.73
182.57
190.23
178.29
143.12
89.53
29.10
-22.46
-52.53
-57.78
-44.16
-21.46
3.22
27.98
54.18
82.40
108.93
129.41
140.14
140.84
134.63
125.86
117.31
108.93
98.66
84.05
65.75
45.31
25.13
7.54
-6.09
-15.49
-21.26
-24.45
-26.31
-28.18
-31.83
-38.49
-48.52
-61.39
-76.02
-91.29
-106.47
-121.31
-135.75
-149.99
-163.77
-176.11
-185.56
-190.60
-190.13
-183.61
-171.19
-153.51
-131.88
-107.87
-83.14
-59.07
-36.60
-16.26
1.75
17.27
30.12
40.09
47.21
51.96
55.22
58.03
61.21
65.15
69.91
75.27
80.96
86.63
91.82
95.97
98.55
99.40
98.78
97.35
95.81
94.52
93.11
90.61
85.76
77.68
66.33
52.69
38.49
25.37
14.13
4.21
-6.12
-19.01
-35.93
-56.85
-80.10
-102.96
-122.83
-138.40
-150.19
-160.40
-172.25
-188.99
-213.00
-244.79
-282.08
-319.65
-350.06
-365.66
-361.11
-335.55
-293.07
-241.22
-188.57
-141.81
-104.49
-77.18
-58.74
-47.96
-44.51
-48.90
-61.80
-82.46
-107.23
-128.82
-137.56
-124.50
-85.93
-26.37
41.45
100.33
134.54
135.01
101.35
40.60
-36.34
-118.33
-196.13
-263.28
-316.00
-353.00
-375.41
-386.60
-391.19
-393.74
-397.72
-404.90
-415.48
-428.66
-442.48
-454.35
-461.43
-461.40
-453.16
-436.97
-414.17
-386.41
-355.33
-321.50
-284.74
-244.63
-201.17
-155.33
-108.87
-64.20
-23.84
9.24
33.70
49.78
59.26
64.70
68.54
73.14
79.48
87.20
93.54
96.72
96.51
94.84
95.61
103.66
124.59
162.38
218.72
290.86
375.64
466.06
553.05
626.55
676.69
697.77
688.42
665.18
638.18
614.18
597.56
590.67
594.83
601.44
604.34
599.01
583.67
556.96
519.96
474.70
423.44
370.35
320.86
282.35
260.41
256.31
264.12
274.26
276.68
256.40
206.91
129.97
34.83
-66.92
-165.27
-254.67
-332.63
-397.98
-450.41
-489.02
-513.63
-524.58
-523.47
-512.76
-495.13
-473.78
-449.47
-422.14
-390.60
-354.24
-313.21
-268.69
-222.62
-177.01
-133.80
-94.39
-60.10
-31.38
-8.17
10.36
25.90
38.81
50.72
63.29
77.82
94.61
113.11
132.11
150.21
166.31
180.22
193.47
208.92
229.89
258.39
293.33
329.41
358.02
369.94
358.68
323.34
268.78
203.86
138.34
80.05
33.35
-1.01
-24.87
-41.27
-53.14
-62.64
-70.74
-77.20
-80.85
-80.32
-75.05
-65.88
-54.99
-45.40
-40.26
-41.78
-50.28
-63.76
-78.24
-88.96
-92.30
-87.11
-75.05
-59.70
-44.79
-32.75
-24.27
-18.84
-15.68
-14.18
-13.87
-13.88
-12.78
-9.22
-2.89
4.60
10.08
9.85
1.28
-16.10
-40.25
-67.14
-91.85
-109.74
-117.65
-114.59
-101.96
-82.97
-61.42
-40.50
-22.13
-7.35
2.99
7.60
5.27
-4.04
-18.15
-32.77
-43.13
-46.13
-41.89
-33.50
-25.25
-20.52
-20.51
-24.46
-30.91
-38.65
-46.68
-53.37
-55.73
-49.96
-33.31
-6.17
26.98
58.78
81.91
92.19
90.20
80.33
68.12
57.34
48.73
40.76
31.76
21.55
11.81
4.81
1.67
1.45
1.76
0.30
-3.66
-9.02
-13.61
-15.74
-15.05
-12.64
-10.24
-9.25
-10.35
-13.71
-19.50
-28.10
-39.73
-53.64
-67.73
-78.69
-82.96
-77.91
-62.74
-38.74
-8.90
22.85
52.36
75.88
90.55
94.69
88.32
73.32
53.14
32.12
14.21
1.98
-3.99
-4.83
-2.64
0.47
3.10
4.77
5.67
6.24
6.80
7.37
7.91
8.42
9.04
9.96
11.15
12.28
12.73
11.99
9.98
7.31
5.09
4.38
5.67
8.47
11.58
13.66
13.98
12.74
10.90
9.46
8.82
8.57
7.74
5.57
2.02
-2.15
-5.76
-7.82
-7.93
-6.33
-3.54
-0.08
3.67
7.35
10.46
12.37
12.61
11.06
8.17
4.74
1.60
-0.65
-1.78
-1.83
-1.01
0.37
1.87
2.96
3.17
2.27
0.51
-1.54
-3.20
-4.15
-4.52
-4.87
-5.67
-6.97
-8.31
-8.90
-8.09
-5.77
-2.43
1.04
3.79
5.44
6.23
6.83
7.91
9.76
12.12
14.36
15.89
16.49
16.42
16.10
15.66
14.76
12.68
8.87
3.48
-2.50
-7.55
-10.38
-10.49
-8.43
-5.34
-2.36
-0.14
1.27
2.10
2.48
2.31
1.37
-0.31
-2.23
-3.52
-3.23
-0.77
3.81
9.78
15.97
21.08
23.89
23.50
19.43
11.76
1.25
-10.61
-21.85
-30.47
-35.15
-35.64
-32.80
-28.20
-23.42
-19.50
-16.77
-14.95
-13.53
-12.07
-10.37
-8.46
-6.46
-4.47
-2.47
-0.38
1.84
3.98
5.43
5.45
3.46
-0.39
-5.18
-9.46
-11.92
-12.04
-10.35
-8.19
-6.90
-7.23
-8.90
-10.83
-11.67
-10.48
-7.15
-2.38
2.73
7.24
10.75
13.36
15.39
16.87
17.34
16.09
12.71
7.62
2.07
-2.30
-4.23
-3.42
-0.60
2.95
6.03
8.02
8.90
9.02
8.74
8.23
7.46
6.39
5.05
3.64
2.38
1.46
0.92
0.66
0.41
-0.06
-0.90
-2.14
-3.61
-5.09
-6.34
-7.22
-7.72
-7.88
-7.66
-6.93
-5.48
-3.15
-0.05
3.39
6.55
8.79
9.72
9.32
7.98
6.37
5.22
5.05
5.91
7.26
8.14
7.55
4.98
0.79
-3.88
-7.60
-9.29
-8.72
-6.52
-3.75
-1.34
0.24
0.95
0.96
0.35
-0.79
-2.25
-3.65
-4.49
-4.41
-3.48
-2.09
-0.77
0.15
0.67
0.97
1.24
1.48
1.60
1.47
1.09
0.59
0.06
-0.47
-1.03
-1.63
-2.19
-2.58
-2.75
-2.77
-2.75
-2.77
-2.74
-2.51
-1.90
-0.95
0.07
0.77
0.84
0.19
-0.86
-1.75
-1.94
-1.17
0.34
1.98
3.04
3.05
2.06
0.59
-0.67
-1.20
-1.01
-0.47
-0.11
-0.25
-0.77
-1.21
-1.12
-0.34
0.92
2.17
2.97
3.16
2.86
2.38
2.07
2.02
2.13
2.12
1.73
0.85
-0.33
-1.36
-1.78
-1.25
0.14
1.96
3.55
4.31
3.98
2.74
1.08
-0.36
-1.11
-0.96
-0.02
1.34
2.59
3.27
3.14
2.30
1.23
0.67
1.34
3.69
7.65
12.52
17.07
19.75
19.19
14.67
6.60
-3.46
-13.19
-20.34
-23.59
-22.95
-19.67
-15.46
-11.60
-8.56
-6.03
-3.56
-1.05
1.03
2.11
1.88
0.77
-0.32
-0.56
0.39
2.13
3.85
4.76
4.57
3.52
2.14
0.99
0.43
0.59
1.38
2.50
3.51
3.87
3.20
1.46
-0.86
-2.97
-3.98
-3.46
-1.58
0.91
3.06
4.10
3.83
2.53
0.81
-0.72
-1.67
-1.95
-1.68
-1.09
-0.52
-0.32
-0.85
-2.35
-4.76
-7.68
-10.41
-12.16
-12.38
-10.91
-8.14
-4.81
-1.85
-0.10
-0.08
-1.79
-4.71
-7.88
-10.14
-10.49
-8.38
-3.88
2.38
9.38
15.98
21.16
24.14
24.57
22.61
18.85
14.23
9.75
6.24
4.08
3.26
3.42
4.06
4.74
5.08
4.85
3.91
2.27
0.11
-2.18
-4.12
-5.24
-5.33
-4.53
-3.33
-2.43
-2.37
-3.30
-4.85
-6.23
-6.58
-5.43
-2.95
0.12
2.74
4.08
3.92
2.62
0.85
-0.75
-1.84
-2.34
-2.30
-1.73
-0.67
0.77
2.26
3.41
3.82
3.32
2.07
0.46
-0.98
-1.85
-1.80
-0.74
1.28
3.95
6.69
8.77
9.41
8.09
4.87
0.61
-3.18
-4.77
-2.98
2.10
8.80
14.33
15.87
11.73
2.07
-11.22
-25.47
-37.95
-46.28
-48.45
-42.83
-28.80
-7.76
16.32
37.54
49.98
50.24
39.03
20.85
1.81
-13.14
-22.04
-25.72
-26.09
-24.20
-19.57
-11.25
0.55
13.29
22.83
25.47
20.16
9.32
-2.20
-9.62
-10.66
-6.40
-0.27
4.03
4.53
1.62
-2.73
-6.36
-8.14
-8.20
-7.39
-6.48
-5.75
-5.02
-3.98
-2.48
-0.68
1.17
2.77
3.93
4.56
4.60
4.03
2.81
0.91
-1.59
-4.46
-7.27
-9.43
-10.37
-9.72
-7.53
-4.37
-1.09
1.48
2.87
3.09
2.59
1.93
1.56
1.62
2.04
2.61
3.13
3.51
3.71
3.69
3.43
2.92
2.24
1.62
1.33
1.52
2.12
2.85
3.35
3.42
3.08
2.58
2.17
1.90
1.62
1.15
0.48
-0.18
-0.48
-0.25
0.31
0.71
0.43
-0.63
-2.00
-2.87
-2.55
-0.94
1.32
3.17
3.76
2.88
1.06
-0.82
-2.10
-2.66
-2.78
-2.77
-2.56
-1.79
-0.13
2.20
4.36
5.32
4.50
2.25
-0.34
-2.03
-2.21
-1.15
0.38
1.69
2.63
3.50
4.50
5.35
5.30
3.61
0.12
-4.46
-8.87
-11.88
-12.89
-12.16
-10.51
-8.78
-7.41
-6.33
-5.13
-3.41
-1.03
1.75
4.42
6.48
7.60
7.84
7.51
6.98
6.50
6.04
5.40
4.37
2.83
0.80
-1.60
-4.16
-6.57
-8.36
-9.03
-8.24
-6.00
-2.82
0.49
3.24
5.11
6.28
7.11
7.91
8.61
8.97
8.76
8.13
7.52
7.38
7.80
8.31
8.11
6.56
3.60
-0.12
-3.64
-6.23
-7.82
-8.86
-9.85
-10.85
-11.33
-10.59
-8.37
-5.22
-2.35
-0.88
-1.17
-2.61
-4.07
-4.55
-3.71
-1.99
-0.06
1.63
3.06
4.46
5.85
6.81
6.66
4.92
1.75
-1.86
-4.55
-5.30
-3.90
-1.11
1.83
3.94
4.95
5.26
5.48
5.86
6.04
5.39
3.52
0.75
-2.08
-4.00
-4.53
-3.83
-2.58
-1.50
-1.01
-1.18
-1.79
-2.62
-3.49
-4.28
-4.81
-4.76
-3.60
-0.77
3.90
9.96
16.05
20.30
20.92
17.06
9.15
-1.08
-11.35
-19.63
-24.60
-25.84
-23.56
-18.31
-10.92
-2.46
5.61
11.71
14.65
14.04
10.51
5.43
0.28
-3.81
-6.37
-7.46
-7.44
-6.79
-6.07
-5.82
-6.51
-8.19
-10.31
-11.73
-11.17
-7.85
-2.14
4.37
9.47
11.29
9.17
3.90
-2.76
-8.78
-12.57
-13.13
-9.96
-2.88
7.70
20.46
32.95
42.01
44.75
39.82
28.07
12.29
-3.88
-17.39
-26.66
-31.62
-33.09
-31.97
-28.80
-23.73
-16.80
-8.27
1.08
10.01
16.95
20.42
19.65
14.96
7.92
0.81
-4.21
-6.07
-5.10
-2.77
-0.74
0.03
-0.32
-0.91
-0.85
0.05
1.27
1.97
1.63
0.50
-0.56
-0.59
0.79
3.09
5.20
6.02
5.07
2.71
-0.06
-2.20
-3.17
-3.06
-2.36
-1.59
-0.87
0.00
1.34
3.24
5.41
7.34
8.59
9.00
8.67
7.77
6.42
4.65
2.71
1.13
0.72
2.06
5.14
9.04
12.27
13.36
11.48
6.87
0.67
-5.48
-10.02
-11.88
-10.70
-6.90
-1.60
3.66
7.32
8.37
6.55
2.41
-3.16
-9.34
-15.63
-21.72
-26.97
-30.29
-30.43
-26.56
-18.95
-9.21
0.31
7.44
10.98
11.17
9.16
6.34
3.59
1.02
-1.77
-5.10
-8.65
-11.36
-11.81
-9.06
-3.35
3.69
9.62
12.41
11.52
8.28
5.06
3.96
5.50
8.47
10.84
11.17
9.58
7.52
6.61
7.33
8.35
7.28
2.23
-6.70
-16.90
-24.12
-24.39
-16.09
-1.11
15.70
28.47
32.99
28.57
18.18
6.69
-1.72
-5.49
-6.00
-5.97
-7.41
-10.24
-12.55
-12.13
-8.15
-1.87
4.12
7.44
7.22
4.40
0.76
-2.15
-3.84
-4.78
-5.63
-6.70
-7.58
-7.61
-6.37
-4.04
-1.17
1.67
4.18
6.44
8.49
10.03
10.35
8.76
5.05
-0.02
-5.02
-8.41
-9.34
-8.01
-5.43
-2.75
-0.55
1.38
3.66
6.60
9.76
12.14
12.80
11.59
9.34
7.33
6.38
6.13
5.24
2.19
-3.43
-10.40
-16.15
-17.89
-14.02
-4.99
6.67
17.36
23.78
24.12
18.57
8.95
-2.12
-12.21
-19.69
-23.85
-24.67
-22.49
-17.92
-11.90
-5.64
-0.49
2.53
3.21
2.24
0.89
0.29
0.77
1.72
1.99
0.62
-2.64
-7.08
-11.33
-13.85
-13.60
-10.35
-4.83
1.41
6.53
8.97
8.09
4.40
-0.70
-5.57
-9.15
-11.34
-12.76
-14.13
-15.67
-16.85
-16.93
-15.61
-13.51
-11.91
-11.96
-13.90
-16.84
-19.37
-20.53
-20.53
-20.55
-21.70
-23.84
-25.24
-23.28
-16.03
-3.79
10.62
22.85
28.97
27.25
18.78
6.77
-4.98
-13.59
-17.76
-17.64
-14.18
-8.55
-1.80
5.19
11.75
17.46
22.26
26.50
30.59
34.81
39.03
42.75
45.41
46.56
45.88
42.93
36.99
27.24
13.31
-4.03
-22.54
-38.89
-49.64
-52.50
-47.16
-35.44
-20.61
-6.25
4.76
10.87
12.02
9.35
4.78
0.46
-1.69
-0.58
3.86
10.50
17.40
22.53
24.29
22.24
17.10
10.48
4.21
-0.23
-2.17
-1.90
-0.50
0.51
-0.09
-2.57
-5.94
-8.17
-7.16
-1.99
6.23
14.65
19.94
19.98
14.88
6.77
-1.48
-7.77
-11.55
-13.52
-14.60
-15.15
-14.76
-12.95
-9.83
-6.33
-3.69
-2.81
-3.75
-5.95
-8.76
-11.77
-14.56
-16.23
-15.20
-9.70
1.05
15.78
31.04
42.30
46.07
41.77
32.05
21.52
14.31
11.96
12.99
14.17
12.63
7.49
0.14
-6.92
-11.58
-13.17
-12.37
-10.44
-8.31
-6.23
-4.04
-1.69
0.43
1.63
1.31
-0.64
-3.66
-6.69
-8.46
-7.94
-4.66
1.12
8.52
16.32
23.35
28.73
31.84
32.11
28.92
21.76
10.71
-2.95
-16.65
-27.17
-31.88
-29.97
-23.04
-14.38
-7.46
-4.20
-4.16
-4.93
-3.79
0.57
7.08
12.77
14.40
10.31
1.49
-8.89
-16.99
-20.06
-17.51
-10.79
-2.45
5.10
10.46
13.28
13.90
12.72
9.83
5.11
-1.37
-9.02
-16.63
-22.65
-25.73
-25.31
-21.84
-16.61
-11.08
-6.30
-2.61
0.19
2.23
3.12
2.08
-1.34
-6.59
-11.86
-14.64
-12.81
-5.83
4.98
16.89
27.06
33.60
36.24
35.87
33.86
31.12
28.02
24.69
21.68
20.27
21.92
27.21
34.95
42.24
45.49
42.25
32.59
19.40
7.09
-0.52
-1.95
1.23
5.42
7.06
4.54
-0.99
-6.53
-9.09
-7.55
-3.37
0.32
0.63
-3.20
-9.18
-13.42
-12.30
-4.36
8.99
24.25
37.30
44.71
44.36
35.45
18.50
-4.59
-30.57
-55.46
-75.67
-89.18
-95.87
-96.82
-93.22
-85.72
-75.04
-63.33
-55.02
-55.83
-69.92
-96.84
-129.90
-157.70
-168.45
-154.78
-117.24
-64.49
-10.24
31.80
52.72
51.21
33.20
9.10
-9.99
-15.58
-3.69
25.10
66.37
113.20
157.62
191.91
210.19
209.83
192.16
161.83
125.16
88.11
54.84
27.51
6.74
-7.74
-16.72
-21.66
-24.81
-28.36
-33.55
-39.80
-44.85
-46.14
-42.34
-34.11
-23.90
-14.55
-7.62
-2.54
1.97
7.10
12.22
13.99
7.60
-9.05
-34.36
-61.35
-79.09
-76.15
-45.10
13.91
91.89
173.29
240.49
278.80
280.66
247.41
188.48
118.25
51.79
0.71
-29.25
-38.73
-33.24
-20.82
-9.54
-4.87
-8.91
-21.05
-39.57
-62.66
-88.25
-113.75
-135.66
-150.58
-156.45
-153.94
-146.43
-138.71
-135.17
-137.85
-145.91
-156.17
-164.71
-168.44
-166.52
-160.49
-153.23
-147.55
-144.68
-143.72
-141.89
-136.08
-122.35
-97.36
-59.36
-9.34
48.23
105.55
152.92
181.52
186.38
168.68
135.55
98.14
68.11
53.99
58.91
79.88
109.61
139.07
160.98
171.85
172.20
165.10
154.13
141.84
129.56
117.94
107.40
97.53
85.55
66.96
37.24
-5.04
-55.52
-103.98
-137.78
-147.26
-130.29
-93.25
-48.12
-7.23
21.24
35.15
37.13
31.71
22.79
12.49
1.69
-9.05
-18.75
-26.43
-31.88
-35.97
-40.31
-46.07
-52.85
-58.75
-61.33
-59.20
-52.98
-45.16
-38.90
-36.55
-38.53
-43.14
-47.14
-46.71
-38.82
-22.33
1.19
27.40
50.18
63.72
64.76
54.09
36.57
19.08
7.82
5.69
11.30
20.04
26.46
26.89
20.84
10.73
0.08
-8.41
-13.96
-17.48
-20.30
-23.07
-25.34
-26.15
-25.09
-22.83
-20.90
-20.86
-23.33
-27.71
-32.40
-35.54
-35.73
-32.33
-25.65
-16.62
-6.62
2.77
10.05
13.82
13.18
8.06
-0.49
-10.23
-18.25
-21.97
-20.26
-14.02
-5.99
0.42
2.69
0.36
-4.74
-9.44
-10.76
-7.37
-0.20
8.05
14.21
16.17
13.73
8.57
3.29
0.04
-0.49
0.76
1.97
1.58
-0.72
-3.94
-6.45
-7.03
-5.70
-3.77
-3.13
-5.22
-10.27
-17.15
-23.95
-28.72
-30.07
-27.34
-20.37
-9.37
5.05
21.65
38.38
52.60
61.68
63.71
58.14
45.89
29.12
10.69
-6.41
-19.57
-26.98
-27.99
-23.32
-14.92
-5.43
2.69
7.92
10.03
9.95
9.02
8.32
8.31
8.81
9.41
9.86
10.10
10.24
10.17
9.60
8.16
5.75
2.80
0.12
-1.45
-1.51
-0.36
1.13
1.90
1.24
-0.94
-4.16
-7.61
-10.57
-12.71
-14.10
-15.02
-15.66
-15.93
-15.46
-13.88
-11.14
-7.73
-4.52
-2.41
-1.79
-2.40
-3.41
-3.90
-3.34
-1.86
-0.05
1.43
2.29
2.79
3.50
4.92
7.10
9.59
11.50
12.01
10.70
7.80
4.10
0.66
-1.59
-2.22
-1.41
0.10
1.36
1.61
0.69
-0.77
-1.61
-0.60
2.87
8.46
14.87
20.39
23.44
23.12
19.37
12.91
4.97
-2.96
-9.40
-13.15
-13.82
-11.94
-8.91
-6.32
-5.02
-4.47
-2.92
1.47
9.09
17.85
23.55
21.57
9.38
-11.84
-37.18
-59.84
-73.80
-76.29
-68.50
-54.56
-39.48
-27.02
-18.60
-13.78
-11.50
-11.27
-13.34
-17.83
-23.73
-28.76
-30.16
-26.24
-17.35
-5.38
7.92
22.56
40.48
63.71
91.79
120.30
141.80
149.21
139.46
115.38
84.48
55.28
33.50
20.10
12.15
5.61
-1.84
-9.82
-16.20
-19.22
-18.90
-17.18
-16.87
-19.91
-26.54
-35.31
-43.77
-49.37
-49.77
-43.07
-28.20
-5.56
22.23
50.28
72.40
82.94
78.77
60.51
32.51
1.58
-25.08
-41.99
-46.95
-41.61
-30.33
-18.42
-10.08
-7.00
-8.34
-11.69
-14.54
-15.35
-13.86
-10.51
-5.94
-0.71
4.66
9.36
12.26
12.23
8.66
1.75
-7.28
-16.56
-23.99
-27.75
-26.88
-21.63
-13.48
-4.82
1.86
4.82
3.64
-0.60
-5.94
-10.38
-12.74
-12.89
-11.55
-9.60
-7.51
-5.27
-2.64
0.46
3.67
6.36
8.02
8.52
8.28
8.01
8.16
8.60
8.59
7.16
3.65
-1.83
-8.38
-14.60
-19.09
-20.92
-19.80
-16.14
-10.87
-5.23
-0.48
2.36
2.76
0.77
-3.06
-7.93
-13.07
-17.84
-21.58
-23.53
-22.94
-19.34
-12.89
-4.55
4.15
11.50
16.20
17.70
16.25
12.76
8.51
4.83
2.72
2.67
4.50
7.49
10.53
12.60
13.02
11.75
9.32
6.62
4.56
3.84
4.66
6.60
8.72
9.80
8.77
5.25
-0.14
-5.82
-9.83
-10.61
-7.73
-2.15
4.15
9.06
11.26
10.63
8.01
4.51
0.91
-2.47
-5.49
-7.84
-8.97
-8.44
-6.30
-3.37
-0.89
0.14
-0.46
-1.89
-2.78
-1.87
1.28
6.17
11.59
16.33
19.63
21.40
22.09
22.33
22.61
23.10
23.75
24.48
25.31
26.37
27.83
29.68
31.59
32.98
33.12
31.37
27.29
20.90
12.65
3.39
-5.75
-13.64
-19.37
-22.52
-23.21
-22.08
-20.01
-17.80
-15.88
-14.27
-12.68
-10.74
-8.31
-5.62
-3.34
-2.40
-3.67
-7.54
-13.55
-20.32
-25.91
-28.43
-26.86
-21.69
-15.02
-9.86
-8.93
-13.34
-22.08
-32.44
-41.18
-46.01
-46.26
-42.69
-36.52
-28.50
-18.56
-6.38
7.60
21.47
32.15
36.48
32.88
22.40
8.64
-3.53
-9.82
-8.32
-0.19
10.81
19.92
23.40
20.08
11.58
1.37
-6.88
-10.90
-10.53
-7.34
-3.46
-0.36
1.81
4.07
7.67
13.16
19.77
25.53
28.15
25.97
18.76
7.86
-4.28
-14.91
-21.95
-24.65
-23.69
-20.75
-17.70
-15.83
-15.36
-15.55
-15.23
-13.54
-10.44
-6.67
-3.24
-0.74
1.01
2.75
5.19
8.31
11.12
12.05
9.73
3.86
-4.43
-12.80
-18.70
-20.45
-17.97
-12.74
-7.05
-2.94
-1.33
-1.80
-3.06
-3.77
-3.15
-1.23
1.38
3.94
5.88
6.88
6.84
5.81
3.93
1.50
-1.07
-3.36
-4.97
-5.61
-5.05
-3.08
0.42
5.24
10.75
15.86
19.34
20.33
18.64
14.81
9.85
4.82
0.47
-2.84
-4.98
-5.84
-5.21
-3.01
0.47
4.35
7.34
8.22
6.51
2.74
-1.62
-4.82
-5.64
-3.86
-0.31
3.57
6.33
7.18
6.17
4.11
2.20
1.57
2.84
5.81
9.49
12.50
13.62
12.37
9.27
5.56
2.60
1.15
1.09
1.51
1.33
-0.14
-2.89
-6.10
-8.68
-9.81
-9.35
-7.89
-6.33
-5.30
-4.70
-3.87
-2.05
0.93
4.37
6.92
7.38
5.32
1.34
-3.20
-6.88
-8.75
-8.50
-6.45
-3.34
-0.16
1.97
2.17
0.11
-3.61
-7.64
-10.42
-10.96
-9.35
-6.63
-4.11
-2.55
-1.74
-0.77
1.19
4.18
7.18
8.65
7.39
3.23
-2.73
-8.57
-12.41
-13.17
-10.95
-6.82
-2.22
1.65
4.20
5.44
5.70
5.30
4.44
3.23
1.81
0.30
-1.13
-2.44
-3.60
-4.59
-5.30
-5.50
-4.99
-3.68
-1.67
0.74
3.18
5.24
6.53
6.77
5.83
3.91
1.50
-0.67
-1.94
-1.99
-0.97
0.59
2.04
2.95
3.19
2.95
2.55
2.31
2.51
3.43
5.37
8.48
12.73
17.69
22.59
26.44
28.32
27.72
24.68
19.90
14.50
9.71
6.44
5.01
4.97
5.47
5.61
5.03
4.10
3.67
4.61
7.21
11.01
15.10
18.74
21.76
24.57
27.79
31.43
34.67
36.04
34.17
28.60
20.19
10.90
2.97
-1.98
-3.60
-2.94
-2.09
-3.38
-8.42
-17.37
-28.75
-40.01
-48.49
-52.56
-52.13
-48.52
-43.60
-38.85
-34.83
-31.34
-27.97
-24.67
-21.90
-20.30
-20.27
-21.70
-24.15
-27.22
-30.89
-35.37
-40.89
-47.16
-53.18
-57.39
-58.28
-55.07
-48.25
-39.63
-31.76
-26.93
-26.29
-29.27
-33.82
-37.21
-37.06
-32.08
-22.37
-9.23
5.39
19.34
30.81
38.53
42.03
41.61
38.42
34.12
30.53
29.05
30.19
33.47
37.69
41.52
44.07
45.08
44.76
43.52
41.59
39.01
35.65
31.32
25.91
19.42
12.00
4.09
-3.53
-9.87
-14.04
-15.61
-14.85
-12.63
-10.12
-8.41
-8.21
-9.72
-12.63
-16.23
-19.56
-21.61
-21.65
-19.48
-15.57
-10.83
-6.24
-2.46
0.45
2.92
5.45
8.18
10.58
11.57
10.19
6.35
1.27
-2.81
-3.63
-0.16
6.68
14.38
20.16
22.56
22.22
21.45
22.80
27.39
34.30
41.24
46.02
47.85
47.50
46.34
45.14
43.45
40.17
34.76
28.20
22.88
21.45
25.24
33.15
41.78
46.70
44.17
32.84
14.39
-6.89
-25.64
-37.49
-40.83
-37.37
-31.29
-27.03
-27.01
-30.31
-33.43
-32.21
-24.37
-10.83
4.88
18.36
26.43
28.33
25.36
19.80
13.49
7.15
0.73
-5.77
-11.58
-15.30
-15.82
-13.50
-10.46
-9.74
-13.60
-21.87
-31.66
-38.72
-39.50
-33.06
-21.34
-7.97
3.64
11.86
17.00
20.43
23.22
25.57
26.92
26.59
24.42
20.81
16.27
11.12
5.24
-1.73
-9.83
-18.58
-26.87
-33.19
-36.12
-34.83
-29.48
-21.45
-13.00
-6.58
-4.01
-5.66
-10.21
-15.07
-17.35
-15.07
-7.81
3.07
15.00
24.93
30.15
28.88
20.66
6.58
-10.91
-28.50
-42.82
-51.17
-52.27
-46.40
-35.44
-22.80
-12.67
-9.08
-14.16
-26.84
-42.39
-53.82
-54.75
-42.34
-18.91
8.85
32.74
46.49
48.22
40.74
29.85
21.63
19.95
25.24
34.88
44.61
50.38
49.57
41.44
27.00
8.71
-9.77
-23.89
-28.81
-21.12
-0.88
27.03
53.47
68.35
65.08
44.09
12.93
-17.20
-36.90
-42.83
-38.47
-31.07
-26.82
-27.46
-29.99
-29.45
-22.59
-10.15
3.75
14.14
17.93
15.12
8.08
-0.16
-7.27
-11.88
-13.28
-11.16
-6.02
-0.07
2.93
-0.82
-12.91
-30.88
-48.61
-59.03
-57.99
-46.89
-32.35
-22.71
-23.16
-32.45
-43.20
-46.03
-35.23
-12.54
13.23
30.77
32.63
19.42
-0.40
-15.36
-17.29
-5.81
12.09
26.77
31.89
28.12
22.09
21.52
29.76
43.33
53.94
53.86
41.03
20.66
2.29
-5.79
-1.38
10.77
22.19
26.02
20.89
10.80
1.62
-3.35
-5.57
-9.53
-18.63
-31.69
-42.69
-44.61
-34.41
-16.15
0.52
5.72
-4.64
-25.91
-46.97
-56.41
-49.08
-29.03
-7.05
5.77
4.62
-6.35
-16.56
-15.47
0.97
27.77
53.65
67.37
63.91
46.92
26.16
11.69
8.43
14.29
22.60
26.92
25.08
19.80
15.97
16.74
21.16
25.05
24.15
17.26
7.18
-1.18
-4.21
-1.99
1.74
2.05
-4.00
-15.48
-27.89
-35.58
-34.58
-24.47
-8.59
7.46
18.19
20.50
14.92
5.14
-3.72
-7.78
-6.19
-1.46
2.20
1.34
-4.66
-13.14
-19.76
-20.98
-16.11
-7.76
-0.51
1.61
-2.64
-10.82
-17.87
-18.67
-10.90
3.49
19.12
30.00
32.91
29.07
22.98
19.19
19.07
19.92
17.07
7.46
-7.80
-23.89
-35.10
-38.18
-33.90
-25.95
-18.49
-14.11
-13.26
-15.04
-18.13
-21.16
-22.49
-20.36
-13.84
-3.92
6.41
13.44
15.18
12.81
10.11
10.93
16.41
23.96
28.93
27.83
20.78
11.49
4.70
3.01
5.21
7.34
5.60
-1.10
-10.42
-18.33
-21.75
-20.27
-15.89
-11.07
-6.93
-2.86
2.16
7.71
11.30
9.66
1.21
-12.13
-25.18
-32.06
-29.40
-18.23
-3.44
8.96
14.86
13.55
7.22
-0.97
-8.60
-14.43
-17.80
-17.93
-13.84
-5.29
6.43
18.35
26.99
30.05
27.64
22.16
17.00
14.99
17.23
22.91
29.92
35.60
37.43
33.65
23.93
9.95
-4.49
-14.21
-14.59
-3.90
15.08
35.55
49.25
50.32
38.11
17.57
-3.17
-16.78
-19.91
-14.08
-4.12
4.56
8.28
5.88
-1.59
-11.81
-21.75
-28.26
-28.80
-22.66
-11.86
-0.73
5.90
5.36
-1.18
-9.14
-13.03
-9.42
1.43
16.16
30.61
41.95
49.26
52.49
50.87
42.40
25.08
-0.97
-31.98
-61.09
-81.12
-88.11
-83.63
-74.30
-68.55
-72.46
-86.69
-106.26
-123.06
-129.63
-122.24
-102.04
-73.96
-44.27
-17.98
2.57
17.82
29.87
40.75
51.19
60.19
65.73
66.32
62.23
55.84
50.63
49.26
52.00
56.65
59.94
59.42
54.65
46.76
37.19
26.66
15.33
4.02
-4.94
-8.32
-4.13
6.15
17.15
22.07
16.64
2.29
-13.97
-23.14
-19.45
-3.94
16.00
30.70
33.49
24.04
7.80
-7.73
-17.32
-20.44
-20.34
-20.99
-24.02
-27.65
-28.22
-23.02
-12.64
-1.16
5.90
4.72
-4.55
-17.41
-27.24
-28.49
-19.53
-3.42
13.51
24.76
26.63
19.64
7.84
-3.51
-10.60
-12.42
-10.63
-7.90
-6.25
-6.29
-7.52
-9.26
-11.21
-13.39
-15.53
-16.82
-16.31
-13.80
-10.50
-8.58
-9.90
-14.50
-20.23
-23.70
-22.26
-15.56
-5.84
3.40
9.51
12.18
13.33
15.71
20.85
27.89
33.97
35.97
32.61
25.47
18.26
14.73
16.48
21.91
27.07
27.90
22.50
12.20
0.75
-7.58
-10.07
-6.59
0.70
8.47
13.78
15.16
13.04
9.39
6.82
7.56
12.45
20.62
29.75
36.96
39.94
37.84
31.63
23.60
16.50
12.41
11.81
13.30
13.81
9.85
-0.86
-17.84
-37.28
-53.30
-60.63
-57.37
-46.27
-33.20
-23.75
-19.57
-17.26
-10.70
4.23
25.81
46.09
55.09
46.87
23.89
-3.74
-23.76
-28.82
-20.54
-7.99
-1.44
-5.74
-17.50
-27.94
-29.15
-19.48
-4.48
6.96
8.58
0.62
-10.93
-18.63
-18.60
-12.58
-6.08
-4.14
-7.87
-14.18
-18.31
-17.51
-12.77
-7.97
-7.01
-11.28
-19.01
-26.67
-31.13
-31.12
-27.36
-21.47
-15.00
-9.06
-4.60
-2.68
-4.15
-8.96
-15.55
-20.98
-21.92
-16.18
-4.11
11.25
24.97
32.24
30.32
20.06
5.81
-6.18
-10.47
-4.99
7.93
22.48
32.12
32.72
24.45
11.67
0.72
-3.13
2.00
13.99
27.89
38.32
41.79
37.87
29.07
19.41
12.61
10.53
12.57
16.08
17.83
15.70
9.82
2.59
-2.77
-4.17
-2.17
0.17
-1.06
-8.07
-19.65
-31.47
-38.15
-36.12
-25.58
-10.36
3.99
12.96
14.91
11.27
5.23
-0.20
-3.45
-4.73
-5.28
-6.41
-8.80
-12.42
-16.85
-21.72
-26.72
-31.41
-34.73
-35.13
-31.14
-22.47
-10.69
1.02
9.13
11.54
8.62
3.05
-1.68
-3.10
-0.81
3.79
8.69
12.58
15.18
16.68
16.98
15.45
11.71
6.66
2.69
2.67
8.00
17.18
26.06
29.84
25.92
15.58
3.70
-3.84
-3.27
5.15
17.37
27.79
32.01
28.66
19.72
9.25
1.57
-0.50
3.38
10.82
17.59
19.26
13.31
0.49
-15.11
-27.78
-32.89
-29.24
-19.61
-9.28
-3.18
-3.47
-8.77
-15.33
-19.40
-19.06
-14.63
-7.87
-0.58
6.10
11.49
14.62
14.02
8.49
-1.63
-13.68
-23.50
-27.52
-25.13
-19.42
-15.53
-17.42
-25.10
-34.26
-38.80
-34.64
-22.43
-7.21
4.61
9.15
7.27
3.65
3.54
9.24
18.64
26.62
28.35
22.26
11.09
0.28
-5.12
-3.14
4.30
12.61
17.00
14.79
6.49
-4.73
-14.49
-18.79
-15.34
-4.21
11.97
28.49
39.75
41.30
31.94
14.90
-3.03
-14.45
-15.02
-5.97
6.39
13.92
11.17
-1.70
-19.13
-33.56
-39.72
-37.26
-30.19
-23.76
-21.04
-21.23
-20.83
-16.58
-7.94
2.23
9.52
10.76
5.99
-1.58
-7.61
-9.15
-6.24
-1.61
1.14
-0.30
-5.66
-12.31
-16.73
-16.41
-11.03
-2.46
6.10
11.65
12.70
9.73
4.90
1.04
0.29
3.15
8.23
12.85
14.34
11.37
4.69
-3.20
-9.12
-10.76
-7.80
-1.92
4.14
8.12
9.29
8.71
8.25
9.21
11.29
12.71
11.27
5.80
-2.85
-12.09
-18.70
-20.43
-16.93
-9.70
-1.21
6.28
11.53
14.36
15.22
14.57
12.57
9.21
4.74
-0.17
-4.42
-6.99
-7.42
-6.12
-4.17
-2.86
-3.01
-4.57
-6.64
-7.91
-7.22
-4.11
1.06
7.24
13.07
17.30
19.20
18.67
16.22
12.72
8.95
5.35
1.92
-1.49
-4.72
-6.89
-6.63
-2.75
4.71
13.79
20.79
21.65
13.82
-2.04
-21.73
-38.97
-47.90
-45.60
-33.26
-15.43
2.15
14.91
21.02
21.42
18.65
15.33
13.01
11.81
10.77
8.54
4.09
-2.76
-11.13
-19.27
-25.30
-27.97
-27.31
-24.45
-20.91
-17.62
-14.46
-10.70
-5.93
-0.86
2.70
2.78
-1.39
-8.66
-16.26
-21.15
-21.56
-17.80
-11.97
-6.69
-3.75
-3.31
-4.10
-4.37
-3.04
-0.48
1.55
0.77
-4.37
-13.56
-24.27
-32.59
-34.86
-29.36
-17.22
-1.86
12.51
22.75
27.82
28.68
27.19
24.97
22.93
21.40
20.49
20.15
19.99
18.89
15.52
9.31
1.37
-5.31
-7.21
-2.36
7.97
19.38
26.29
24.86
15.15
1.12
-11.36
-17.51
-15.75
-7.98
1.80
9.74
13.75
13.87
11.59
8.76
6.75
6.20
7.17
9.33
12.02
14.34
15.39
14.57
11.95
8.47
5.80
5.91
10.30
19.25
31.13
42.54
49.20
47.54
36.57
18.83
0.00
-13.10
-15.11
-4.31
16.56
41.22
61.88
71.66
66.64
47.17
18.01
-12.53
-34.83
-41.27
-29.44
-4.07
24.08
42.56
43.07
25.87
0.01
-21.20
-27.26
-15.96
5.88
26.90
38.18
38.01
31.58
26.06
24.87
25.28
21.25
9.20
-7.61
-19.87
-18.18
-0.24
25.75
44.50
42.35
15.86
-25.14
-62.42
-79.26
-69.91
-42.87
-16.19
-7.83
-26.24
-66.56
-113.39
-148.57
-159.18
-142.11
-103.73
-56.15
-12.30
18.12
30.85
27.41
14.04
-0.80
-9.74
-9.44
-1.74
8.07
14.80
16.96
17.73
22.53
34.56
51.60
66.28
70.00
58.15
33.22
3.79
-19.96
-31.48
-30.74
-23.41
-17.40
-18.50
-27.70
-41.16
-52.13
-54.15
-43.91
-22.82
3.21
25.72
37.06
33.75
18.48
-0.52
-12.91
-11.16
5.36
29.49
49.43
54.60
41.19
14.25
-14.81
-33.93
-36.31
-23.01
-1.39
19.25
32.11
34.86
28.98
17.93
5.60
-4.13
-7.65
-2.58
10.63
27.64
41.13
43.80
32.22
9.09
-17.77
-39.06
-48.51
-45.33
-33.75
-20.03
-9.07
-2.59
0.59
2.68
5.01
7.14
7.22
3.27
-5.56
-17.91
-30.11
-37.13
-34.32
-19.77
4.05
30.24
49.55
54.09
40.97
14.11
-16.94
-40.89
-49.51
-41.12
-21.01
1.43
17.37
22.75
19.66
14.44
13.46
19.07
28.25
34.55
32.29
20.39
3.29
-11.49
-17.78
-14.16
-4.50
4.92
9.52
9.05
7.17
8.19
13.72
21.24
25.81
23.44
14.12
2.07
-6.49
-6.79
1.86
15.92
29.42
36.73
34.50
22.67
3.90
-17.22
-35.24
-45.35
-44.91
-34.97
-20.36
-7.89
-3.06
-6.85
-14.76
-18.80
-11.99
7.34
33.73
56.68
65.36
54.01
24.88
-12.49
-45.30
-63.03
-61.91
-46.40
-26.93
-14.94
-17.48
-33.89
-56.35
-73.98
-78.69
-69.06
-50.71
-32.60
-21.84
-20.01
-23.17
-25.16
-21.80
-13.32
-3.54
3.18
5.11
4.05
3.64
6.48
12.13
17.54
19.33
16.36
10.81
6.89
8.16
15.24
25.37
34.11
37.94
36.29
31.58
27.43
26.21
27.36
27.80
23.96
14.33
1.00
-10.93
-15.80
-10.50
3.48
20.28
32.27
33.63
23.30
5.45
-12.54
-23.73
-24.85
-17.48
-6.67
2.01
5.33
3.65
-0.05
-2.43
-2.07
-0.07
0.82
-1.66
-7.66
-14.89
-19.78
-19.45
-13.15
-2.56
9.18
18.96
24.77
26.05
23.27
17.40
9.56
1.17
-5.99
-10.02
-9.63
-4.84
2.68
10.12
14.57
14.21
8.93
0.24
-9.45
-17.83
-23.38
-25.63
-24.98
-22.15
-17.77
-12.18
-5.56
1.59
8.21
12.78
13.96
11.49
6.73
2.36
1.09
4.17
10.37
16.41
18.66
15.15
6.85
-2.75
-9.62
-11.39
-8.60
-4.10
-1.05
-0.90
-2.52
-3.05
0.03
7.03
15.60
21.86
22.51
16.52
5.77
-5.94
-14.62
-17.81
-15.51
-9.92
-4.23
-1.23
-2.08
-6.01
-10.92
-14.43
-14.87
-11.95
-6.52
-0.17
5.40
8.81
9.35
7.06
2.88
-1.63
-4.84
-5.67
-4.17
-1.35
1.44
3.34
4.37
5.01
5.55
5.58
4.36
1.61
-1.82
-4.14
-3.75
-0.54
3.70
6.11
4.68
-0.29
-6.10
-9.30
-8.02
-3.43
0.87
1.08
-4.17
-12.77
-20.16
-22.09
-16.95
-6.68
4.59
12.86
16.14
14.80
10.59
5.19
-0.61
-6.64
-12.56
-17.33
-19.33
-17.21
-10.69
-1.00
9.42
17.73
21.68
20.50
15.23
8.47
3.23
1.52
3.24
6.16
7.31
4.84
-0.44
-5.32
-6.11
-1.14
7.73
15.82
18.24
12.78
1.38
-11.08
-19.43
-21.12
-17.09
-10.66
-5.14
-2.07
-0.79
0.24
1.97
4.12
5.50
5.21
3.36
1.02
-0.46
-0.25
1.70
5.00
9.19
13.83
18.41
21.99
23.49
22.17
18.19
12.56
6.61
1.24
-3.48
-7.89
-12.06
-15.24
-16.27
-14.45
-10.49
-6.60
-5.42
-8.37
-14.35
-19.93
-21.00
-15.12
-3.18
10.69
21.10
24.27
20.08
12.06
5.29
3.35
6.07
9.61
8.90
0.92
-12.98
-27.36
-35.43
-32.71
-19.57
-1.28
14.62
22.05
19.18
8.95
-2.94
-11.16
-13.24
-9.97
-3.78
3.41
11.50
21.30
32.47
41.89
44.13
34.20
11.11
-20.10
-49.52
-66.28
-63.36
-40.53
-4.22
35.45
68.44
87.81
90.73
78.12
53.60
22.43
-9.37
-36.12
-53.56
-59.83
-55.81
-44.50
-29.90
-15.73
-4.66
1.90
3.72
1.55
-2.87
-7.26
-9.41
-8.17
-4.01
1.07
4.63
5.05
2.48
-1.51
-5.04
-7.12
-8.11
-9.12
-10.80
-12.75
-13.82
-13.17
-11.15
-9.24
-8.94
-10.65
-13.26
-14.89
-14.17
-10.97
-6.06
-0.32
5.95
12.57
18.52
21.24
17.54
5.61
-12.76
-31.81
-43.68
-42.25
-26.40
-1.05
24.83
42.22
45.75
35.48
16.10
-5.54
-23.04
-32.13
-31.15
-20.78
-3.56
16.67
35.64
49.66
56.67
56.53
50.52
40.15
26.52
10.44
-6.68
-22.05
-31.90
-33.06
-25.00
-10.63
4.67
15.54
19.24
16.63
11.03
5.84
2.42
-0.23
-3.81
-8.58
-12.42
-11.85
-4.75
7.78
21.41
31.00
33.56
29.54
21.71
12.31
1.03
-14.51
-35.59
-58.96
-76.20
-77.23
-56.37
-17.21
27.23
60.07
68.74
51.32
17.39
-17.14
-38.16
-39.73
-25.69
-5.81
10.33
18.20
19.30
18.36
19.14
21.57
22.01
16.16
2.64
-15.15
-29.99
-34.46
-25.20
-5.13
17.44
32.86
35.12
24.91
9.14
-3.14
-5.77
1.09
11.49
17.51
14.22
2.54
-11.47
-20.44
-20.16
-11.62
0.10
9.40
13.54
13.71
13.04
13.25
12.47
5.79
-11.15
-38.11
-68.25
-89.99
-92.43
-71.35
-32.45
10.46
41.66
51.10
39.07
15.82
-4.23
-10.19
-0.22
18.04
32.46
33.67
20.44
-0.05
-17.05
-23.03
-18.33
-10.53
-9.21
-19.17
-36.71
-50.98
-50.00
-27.99
10.41
51.21
77.09
75.76
45.99
-1.07
-46.62
-72.66
-70.39
-44.45
-10.69
11.93
11.25
-11.73
-43.44
-65.41
-64.56
-40.30
-4.19
27.12
41.37
36.88
21.90
8.36
4.46
10.52
20.17
25.44
21.98
11.20
-1.21
-9.15
-9.57
-3.66
4.13
8.83
7.47
0.55
-8.05
-12.86
-9.67
1.95
17.68
30.01
32.05
21.75
3.79
-12.15
-16.35
-4.45
19.78
46.24
63.63
65.21
51.66
29.73
8.10
-7.16
-14.57
-16.32
-15.71
-14.88
-14.06
-12.28
-8.62
-2.90
4.16
11.26
16.76
18.90
16.38
9.06
-1.54
-12.42
-20.13
-22.25
-18.48
-10.61
-1.68
5.41
8.75
7.74
2.89
-4.53
-12.86
-20.26
-25.10
-26.26
-23.40
-16.93
-7.90
2.12
11.19
17.40
19.45
17.38
12.82
8.42
6.61
8.20
11.89
15.01
15.23
11.96
6.68
1.82
-0.90
-1.53
-1.58
-2.71
-5.63
-9.62
-13.33
-15.59
-15.93
-14.34
-10.87
-5.61
0.86
7.03
10.73
10.27
5.57
-1.42
-7.75
-11.20
-11.57
-10.44
-9.73
-10.02
-10.15
-8.29
-3.63
2.76
8.80
13.06
15.76
18.27
21.27
23.44
21.88
14.43
2.08
-10.51
-17.18
-14.06
-2.27
12.26
21.94
21.75
11.88
-2.66
-15.06
-20.22
-16.97
-7.90
2.44
9.72
11.34
6.98
-1.62
-11.33
-18.51
-20.29
-15.81
-6.93
2.39
7.98
7.73
3.03
-1.98
-2.96
1.71
9.53
15.32
14.57
6.61
-4.65
-13.06
-14.16
-7.86
1.67
8.91
10.55
7.15
2.12
-1.04
-1.22
-0.07
-0.32
-3.47
-8.53
-12.52
-12.55
-7.62
0.84
9.69
15.76
17.21
14.11
8.17
1.88
-2.56
-4.35
-4.38
-4.68
-6.92
-10.85
-13.78
-12.00
-3.32
10.49
23.53
28.42
20.62
1.76
-20.39
-35.75
-37.48
-25.88
-8.10
6.17
10.34
4.41
-5.59
-11.93
-10.02
-1.16
8.53
12.06
5.94
-7.56
-21.60
-28.43
-23.65
-8.74
9.57
22.71
24.71
15.32
0.06
-12.86
-17.08
-11.49
-0.52
8.86
11.50
7.04
-0.34
-4.97
-3.53
2.98
10.01
12.38
7.30
-4.30
-18.45
-30.07
-34.93
-31.09
-19.54
-3.96
10.37
18.66
19.03
13.80
8.75
10.12
20.92
38.75
56.63
66.51
63.50
48.19
25.91
3.80
-12.59
-21.10
-22.61
-19.53
-14.34
-9.09
-5.65
-6.00
-11.79
-23.48
-39.32
-55.13
-65.26
-64.49
-50.22
-23.89
8.97
40.39
62.58
70.74
64.81
49.19
30.65
15.10
5.17
-0.43
-5.19
-11.96
-20.79
-28.78
-32.13
-28.83
-20.26
-10.60
-4.34
-3.61
-7.00
-10.50
-10.06
-4.14
5.37
14.16
17.76
13.98
4.04
-8.01
-17.21
-20.03
-15.96
-7.52
1.19
6.58
7.32
4.89
2.64
4.11
11.32
23.90
39.17
53.22
62.30
64.10
58.54
47.63
34.71
23.05
14.54
9.10
4.98
-0.01
-7.23
-16.52
-26.38
-34.91
-40.73
-43.64
-44.34
-43.93
-43.17
-42.28
-41.25
-40.30
-40.25
-42.18
-46.63
-52.87
-58.65
-60.98
-57.37
-47.02
-31.24
-12.83
5.16
20.46
32.07
39.98
44.62
46.51
46.26
44.61
42.37
40.17
38.03
35.34
31.28
25.28
17.56
9.07
1.12
-5.20
-9.32
-11.35
-11.92
-11.74
-11.44
-11.16
-10.69
-9.57
-7.45
-4.41
-0.93
2.35
4.91
6.57
7.35
7.32
6.47
4.98
3.42
2.86
4.33
7.95
12.54
15.89
16.01
12.51
7.01
2.33
0.67
2.21
4.98
6.29
4.55
0.32
-4.35
-7.45
-8.51
-8.69
-9.47
-11.21
-12.59
-11.56
-7.17
-0.59
5.25
7.47
5.04
-0.63
-6.75
-10.94
-12.55
-12.53
-12.17
-11.91
-11.01
-8.47
-4.22
0.40
3.32
3.23
0.69
-1.94
-2.01
1.57
7.37
12.04
12.29
7.02
-1.86
-10.43
-14.89
-13.69
-8.22
-1.81
2.31
2.80
0.67
-1.63
-1.95
0.34
4.07
7.25
8.41
7.55
6.01
5.60
7.36
10.75
13.78
14.04
10.12
2.61
-5.80
-11.52
-11.78
-6.03
3.66
13.70
20.66
23.01
21.53
18.44
15.81
14.29
13.05
10.81
7.16
3.05
0.18
-0.48
0.29
0.33
-2.44
-8.26
-15.16
-19.96
-20.39
-16.56
-10.85
-6.25
-4.46
-5.07
-6.28
-6.51
-5.61
-4.69
-5.04
-6.87
-9.18
-10.50
-9.95
-7.77
-4.87
-2.14
0.03
1.67
2.88
3.58
3.86
4.19
5.33
7.69
10.68
12.89
12.93
10.69
7.55
5.47
5.30
5.90
4.80
0.33
-6.57
-12.29
-12.60
-5.67
6.21
17.63
23.32
21.42
14.64
8.17
6.04
8.24
10.85
9.05
0.78
-11.48
-22.10
-25.91
-21.51
-12.09
-3.28
0.27
-2.54
-9.08
-15.09
-17.49
-16.12
-13.52
-12.94
-16.04
-21.51
-25.50
-23.83
-14.67
-0.23
13.73
20.69
17.08
4.73
-9.73
-18.30
-16.29
-5.13
8.49
16.76
15.68
7.49
-0.89
-2.42
5.36
18.67
29.59
30.73
19.53
-0.29
-20.61
-33.04
-32.77
-20.46
-1.53
16.57
27.48
28.34
20.34
7.76
-4.27
-11.89
-13.78
-11.03
-6.01
-1.02
2.36
3.26
1.26
-3.57
-10.16
-16.22
-18.91
-16.51
-9.97
-3.16
-0.85
-5.50
-14.91
-22.73
-22.01
-9.90
9.66
27.36
33.54
23.81
1.79
-22.86
-39.73
-43.10
-34.06
-18.66
-3.36
8.59
17.85
26.45
34.54
38.98
35.22
21.31
0.76
-17.58
-23.63
-11.97
14.03
42.36
57.51
48.31
14.29
-33.16
-75.86
-97.96
-94.02
-71.50
-46.15
-32.83
-37.30
-53.42
-67.49
-66.58
-45.86
-10.97
25.64
51.25
58.87
49.56
30.73
12.32
2.78
6.61
23.49
49.37
78.12
103.89
122.78
133.23
135.20
128.64
113.02
88.52
58.25
29.49
12.28
14.90
38.80
76.08
112.00
131.64
126.77
99.55
60.26
21.32
-8.50
-26.39
-33.40
-30.66
-17.45
7.06
39.82
71.71
89.75
83.52
51.76
4.51
-41.19
-69.87
-75.45
-63.73
-48.28
-42.95
-55.03
-82.94
-118.67
-152.70
-178.20
-192.48
-195.98
-190.56
-178.55
-162.63
-146.02
-131.97
-122.58
-117.93
-115.85
-113.02
-106.33
-93.95
-75.62
-52.20
-25.27
3.04
29.97
52.20
66.68
71.69
67.82
58.17
47.34
39.91
38.82
44.45
54.61
65.46
73.04
74.81
70.59
62.53
54.09
48.43
47.23
50.18
55.50
60.97
64.69
65.50
63.03
57.74
50.95
44.87
41.87
43.32
48.43
53.97
55.43
49.22
34.86
15.61
-2.79
-14.72
-17.21
-11.16
-0.66
9.07
13.75
11.32
1.91
-12.77
-30.09
-46.83
-59.46
-64.78
-61.13
-49.54
-34.08
-20.70
-14.79
-18.84
-31.06
-46.15
-57.71
-60.76
-53.42
-37.11
-15.54
6.45
23.83
32.28
29.25
15.22
-5.58
-25.70
-36.66
-32.45
-12.65
16.66
44.83
61.06
59.13
40.28
12.59
-12.79
-26.80
-26.31
-14.78
0.33
11.90
16.43
15.01
11.33
8.75
8.13
7.82
5.54
0.49
-5.90
-10.80
-12.18
-10.39
-8.31
-9.66
-16.61
-28.10
-39.99
-46.92
-45.04
-34.18
-18.23
-3.49
4.07
1.61
-9.45
-23.97
-35.44
-38.87
-32.95
-20.49
-6.92
2.45
4.96
1.78
-2.98
-4.67
-0.67
8.16
18.17
25.16
26.90
24.36
20.98
20.48
24.55
31.81
38.54
40.51
35.26
23.38
8.43
-4.59
-11.20
-9.46
-0.95
9.79
16.85
15.39
3.80
-15.40
-36.21
-51.51
-55.91
-47.74
-29.56
-6.75
14.82
30.80
39.45
41.46
38.90
34.19
29.38
25.94
24.84
26.50
30.63
36.10
41.11
43.68
42.46
37.38
29.71
21.50
14.65
9.93
6.48
2.40
-4.27
-14.32
-26.72
-38.90
-47.73
-50.72
-46.99
-37.59
-25.24
-13.68
-6.67
-6.71
-14.01
-25.90
-37.46
-43.45
-40.68
-29.72
-14.72
-1.27
6.44
7.67
4.99
2.29
2.28
5.04
8.69
11.21
12.00
12.07
12.69
13.91
14.00
10.66
2.88
-7.77
-17.55
-22.58
-21.08
-14.38
-6.13
-0.11
1.82
0.40
-1.86
-2.60
-1.06
1.60
3.26
2.39
-0.77
-4.22
-5.31
-2.34
4.18
11.45
15.72
14.20
6.69
-4.06
-13.52
-17.61
-14.61
-5.86
5.09
14.28
19.13
19.16
15.65
10.53
5.32
0.80
-2.73
-4.82
-4.58
-1.11
5.73
14.63
22.95
27.72
27.25
22.13
15.24
10.31
9.85
13.71
19.01
21.78
19.30
11.63
1.33
-8.08
-14.27
-17.14
-18.41
-20.18
-23.39
-27.57
-31.50
-34.36
-36.32
-38.12
-40.13
-41.46
-40.30
-34.99
-25.42
-13.61
-3.01
3.15
3.43
-1.06
-7.26
-11.66
-11.80
-7.19
0.88
10.24
18.83
25.38
29.54
31.60
31.96
30.98
28.96
26.36
23.98
22.78
23.63
26.77
31.70
37.11
41.51
43.96
44.35
43.44
42.11
40.69
38.69
35.14
29.40
21.88
14.07
7.87
4.71
4.91
7.76
11.96
16.21
19.03
18.47
12.12
-2.00
-23.81
-49.89
-73.89
-88.97
-91.27
-82.32
-68.55
-57.83
-54.93
-58.57
-62.36
-58.87
-44.61
-22.69
-1.39
10.62
9.33
-2.26
-15.76
-22.18
-16.82
-1.69
15.89
27.30
27.04
15.23
-3.00
-20.36
-31.08
-33.28
-29.05
-22.60
-17.61
-15.43
-15.04
-14.51
-12.86
-11.15
-11.87
-17.26
-27.70
-40.92
-53.02
-60.34
-61.33
-57.20
-51.28
-47.28
-47.52
-51.97
-58.40
-63.48
-64.31
-59.77
-50.99
-40.84
-32.59
-28.10
-26.66
-24.94
-18.28
-2.85
22.53
55.85
92.79
127.96
156.22
173.47
177.19
167.29
147.05
123.46
105.57
101.30
113.67
138.74
166.90
187.12
192.05
180.91
158.92
133.50
110.13
90.05
71.09
50.44
27.31
3.75
-16.68
-31.14
-39.15
-42.56
-44.03
-45.06
-45.00
-41.47
-31.76
-14.82
7.49
30.66
49.00
57.87
55.42
43.12
24.59
3.79
-16.67
-36.28
-56.09
-77.64
-101.73
-127.55
-152.31
-171.66
-180.61
-175.38
-155.11
-123.01
-85.90
-52.24
-28.97
-19.18
-21.39
-30.87
-42.19
-51.33
-56.56
-57.80
-55.56
-50.06
-41.26
-29.46
-15.85
-2.79
6.71
9.96
5.84
-4.38
-17.10
-27.55
-31.64
-27.60
-16.76
-2.85
9.80
18.20
21.83
22.33
22.20
23.14
25.20
27.02
27.08
24.98
22.02
20.68
23.28
30.63
41.36
52.49
60.66
63.65
61.26
55.16
47.92
41.56
36.80
32.88
28.35
22.16
14.37
6.20
-0.76
-5.37
-7.64
-8.41
-8.76
-9.17
-9.33
-8.52
-6.31
-3.11
0.01
1.94
2.24
1.40
0.51
0.53
1.60
2.88
2.86
0.12
-5.96
-14.72
-24.32
-32.37
-36.87
-37.10
-33.87
-29.18
-25.19
-23.21
-23.19
-23.95
-23.98
-22.30
-18.88
-14.54
-10.31
-6.92
-4.58
-3.12
-2.23
-1.57
-0.85
0.27
2.16
5.17
9.43
14.76
20.76
26.93
32.83
38.23
42.98
46.85
49.30
49.45
46.21
38.75
26.98
11.82
-4.82
-20.46
-32.81
-40.28
-42.47
-40.13
-34.78
-28.18
-21.91
-16.89
-13.42
-11.32
-10.22
-9.74
-9.50
-9.02
-7.70
-4.98
-0.68
4.62
9.69
13.00
13.51
11.22
7.23
3.09
-0.02
-1.89
-3.20
-4.83
-6.99
-8.87
-9.03
-6.43
-1.33
4.61
9.09
10.41
8.41
4.61
1.25
0.26
2.27
6.60
11.88
16.84
20.73
23.28
24.32
23.49
20.25
14.36
6.22
-2.95
-11.41
-17.52
-20.37
-20.10
-17.78
-14.87
-12.55
-11.27
-10.67
-9.91
-8.31
-5.72
-2.68
-0.14
1.10
0.76
-0.85
-3.09
-5.40
-7.56
-9.73
-12.25
-15.32
-18.76
-22.01
-24.35
-25.11
-24.02
-21.20
-17.16
-12.69
-8.68
-5.98
-5.23
-6.68
-10.06
-14.65
-19.36
-23.20
-25.61
-26.68
-27.06
-27.49
-28.24
-28.79
-28.06
-25.08
-19.86
-13.78
-9.33
-8.83
-13.21
-21.01
-28.50
-31.08
-25.24
-10.07
12.44
38.54
64.55
88.22
108.95
126.60
140.39
148.90
151.71
150.89
151.05
157.03
170.21
186.36
197.02
194.15
175.47
146.66
118.34
99.25
89.86
80.85
58.48
13.08
-54.18
-130.69
-198.50
-243.32
-261.25
-258.52
-248.01
-241.79
-245.88
-258.57
-273.17
-282.95
-284.75
-279.63
-270.77
-261.65
-251.46
-235.74
-208.95
-167.72
-113.07
-50.33
13.10
70.85
119.42
158.25
187.94
208.66
219.58
219.93
210.62
195.33
179.92
170.10
169.23
176.36
186.41
192.15
186.83
167.00
133.68
91.97
49.05
11.44
-17.25
-36.84
-49.13
-55.79
-56.63
-49.92
-34.48
-11.87
12.87
32.90
42.50
39.89
27.93
12.36
-1.50
-11.61
-19.83
-30.04
-44.94
-63.53
-80.77
-90.02
-86.23
-68.47
-40.49
-8.72
20.22
41.82
54.36
58.40
55.64
48.05
37.74
26.81
17.31
10.90
8.53
10.30
15.15
20.66
23.66
21.18
12.14
-1.56
-15.46
-24.48
-25.69
-19.57
-9.59
-0.03
6.13
7.73
4.34
-5.55
-24.78
-55.57
-96.46
-140.48
-176.39
-193.08
-184.74
-153.31
-107.61
-59.16
-17.31
13.60
34.28
48.20
58.81
67.78
74.81
78.49
77.80
72.71
64.24
54.00
43.63
34.44
27.17
22.07
18.95
17.50
17.45
18.55
20.41
22.17
22.49
19.85
13.28
3.01
-9.19
-20.33
-27.32
-28.09
-22.61
-12.84
-1.90
7.45
14.07
18.63
22.70
27.18
31.26
32.54
28.57
18.62
4.56
-9.75
-20.42
-25.32
-24.70
-20.41
-14.34
-7.28
0.94
10.39
20.01
27.42
29.98
26.34
17.42
6.23
-3.38
-8.26
-7.15
-0.76
8.61
18.03
24.74
26.71
22.96
13.72
0.29
-15.16
-30.00
-41.78
-48.67
-50.03
-46.39
-39.20
-30.33
-21.49
-13.76
-7.58
-2.88
0.64
3.28
5.29
6.88
8.24
9.44
10.34
10.60
9.89
8.12
5.65
3.21
1.64
1.47
2.79
5.17
7.86
10.09
11.26
11.12
9.83
7.82
5.73
4.20
3.61
3.98
5.02
6.24
7.28
8.14
9.06
10.30
11.75
12.69
11.96
8.64
2.65
-4.89
-12.07
-17.03
-18.75
-17.43
-14.05
-9.60
-4.56
1.09
7.31
13.37
17.79
18.93
15.87
9.04
0.23
-8.18
-14.15
-16.76
-16.31
-13.96
-11.14
-9.04
-8.38
-9.34
-11.72
-15.01
-18.51
-21.42
-22.91
-22.27
-19.16
-13.81
-7.14
-0.60
4.26
6.31
5.35
2.15
-1.77
-4.70
-5.34
-3.21
1.27
7.09
12.97
17.79
20.74
21.25
18.94
13.76
6.28
-2.01
-8.93
-12.26
-10.69
-4.54
4.18
12.61
18.18
19.61
17.25
12.70
7.86
4.14
2.02
1.24
1.09
0.84
0.02
-1.52
-3.57
-5.69
-7.47
-8.70
-9.37
-9.58
-9.32
-8.46
-6.87
-4.60
-2.03
0.17
1.30
1.03
-0.46
-2.54
-4.38
-5.44
-5.63
-5.30
-4.92
-4.78
-4.73
-4.34
-3.12
-0.90
1.96
4.64
6.16
5.76
3.34
-0.52
-4.69
-7.95
-9.35
-8.54
-5.74
-1.60
3.09
7.56
11.21
13.58
14.53
14.24
13.09
11.57
9.99
8.32
6.30
3.71
0.67
-2.23
-4.11
-4.26
-2.47
0.70
4.27
7.22
8.97
9.51
9.34
9.11
9.26
9.75
10.01
9.14
6.33
1.47
-4.53
-9.82
-12.42
-11.28
-7.04
-1.98
1.03
0.08
-4.65
-11.01
-16.00
-17.37
-14.83
-9.80
-4.30
0.13
2.75
3.01
0.04
-7.10
-18.21
-30.78
-39.93
-40.34
-29.08
-7.90
16.86
36.71
44.92
39.43
23.47
3.56
-13.67
-24.14
-27.09
-24.21
-17.87
-9.79
-0.65
9.38
19.90
29.69
36.98
40.27
39.10
34.38
28.10
22.35
18.43
16.27
14.62
11.76
6.40
-1.56
-10.94
-19.74
-26.11
-29.13
-29.20
-27.72
-26.22
-25.53
-25.35
-24.65
-22.40
-18.39
-13.46
-9.08
-6.57
-6.42
-8.24
-11.03
-13.89
-16.27
-17.95
-18.68
-17.95
-15.11
-9.72
-2.04
6.67
14.34
18.85
18.89
14.61
7.70
0.76
-3.70
-4.25
-0.98
4.67
10.55
14.65
15.76
13.69
9.24
3.75
-1.35
-4.93
-6.47
-6.08
-4.39
-2.23
-0.28
1.15
2.24
3.49
5.46
8.55
12.73
17.57
22.18
25.51
26.58
24.88
20.57
14.46
7.74
1.64
-2.92
-5.48
-5.98
-4.75
-2.39
0.27
2.36
3.10
2.12
-0.40
-3.73
-6.80
-8.60
-8.55
-6.69
-3.61
-0.28
2.44
3.99
4.31
3.78
2.96
2.39
2.30
2.69
3.36
4.07
4.65
5.04
5.30
5.49
5.69
5.86
5.88
5.36
3.83
0.92
-3.32
-8.17
-12.42
-14.81
-14.55
-11.76
-7.44
-3.00
0.25
1.63
1.14
-0.70
-3.20
-5.78
-8.01
-9.64
-10.47
-10.36
-9.29
-7.43
-5.18
-3.04
-1.59
-1.24
-2.07
-3.77
-5.71
-7.17
-7.61
-6.88
-5.30
-3.52
-2.29
-2.10
-3.00
-4.52
-5.75
-5.72
-3.74
0.24
5.58
11.13
15.64
18.25
18.70
17.37
14.97
12.28
9.88
8.16
7.33
7.50
8.56
10.09
11.32
11.38
9.68
6.27
1.91
-2.22
-5.09
-6.23
-5.85
-4.67
-3.47
-2.79
-2.76
-3.26
-4.06
-4.96
-5.76
-6.29
-6.34
-5.76
-4.53
-2.81
-0.96
0.56
1.33
1.03
-0.31
-2.40
-4.69
-6.54
-7.45
-7.21
-6.00
-4.22
-2.35
-0.74
0.47
1.33
1.92
2.30
2.49
2.47
2.32
2.20
2.36
2.97
3.98
5.20
6.32
7.17
7.68
7.96
8.09
8.01
7.57
6.64
5.28
3.74
2.43
1.64
1.41
1.50
1.53
1.17
0.28
-1.08
-2.80
-4.72
-6.76
-8.85
-10.92
-12.79
-14.17
-14.75
-14.30
-12.87
-10.80
-8.61
-6.83
-5.74
-5.28
-5.11
-4.85
-4.23
-3.28
-2.12
-0.90
0.43
1.98
3.78
5.64
7.15
7.91
7.78
6.98
5.96
5.19
4.90
5.00
5.26
5.51
5.68
5.82
5.99
6.07
5.85
5.12
3.83
2.13
0.29
-1.42
-2.81
-3.75
-4.21
-4.18
-3.77
-3.22
-2.90
-3.19
-4.29
-6.11
-8.31
-10.41
-12.01
-12.88
-13.03
-12.63
-11.82
-10.79
-9.69
-8.80
-8.40
-8.72
-9.75
-11.15
-12.32
-12.67
-11.91
-10.16
-7.97
-5.99
-4.74
-4.35
-4.53
-4.76
-4.51
-3.51
-1.84
0.10
1.85
3.14
4.01
4.86
6.28
8.69
12.24
16.70
21.51
25.86
28.76
29.23
26.80
21.85
15.65
9.93
6.15
4.95
5.81
7.40
8.17
6.87
2.90
-3.56
-11.42
-19.00
-24.42
-26.49
-25.45
-22.85
-20.76
-20.40
-21.39
-22.11
-20.77
-16.69
-10.37
-2.77
5.80
15.90
28.06
41.47
53.38
60.01
58.53
48.91
34.32
19.73
9.74
6.71
10.22
17.89
26.72
34.24
38.95
40.32
38.35
33.36
26.14
18.09
11.17
7.51
8.46
13.91
22.00
29.59
33.48
31.66
24.03
12.38
-0.39
-11.47
-19.07
-22.70
-23.06
-21.40
-18.96
-16.59
-14.70
-13.38
-12.63
-12.48
-13.00
-14.18
-15.78
-17.28
-17.97
-17.26
-15.01
-11.78
-8.57
-6.55
-6.38
-7.88
-10.10
-11.73
-11.86
-10.40
-8.19
-6.42
-5.93
-6.79
-8.32
-9.63
-10.26
-10.43
-10.75
-11.71
-13.15
-14.31
-14.33
-12.85
-10.35
-7.89
-6.47
-6.33
-6.78
-6.67
-5.11
-2.14
1.29
3.88
4.87
4.56
4.24
5.43
9.00
14.59
20.66
25.37
27.40
26.77
24.68
22.95
23.04
25.36
29.07
32.43
33.54
31.04
24.70
15.47
5.19
-3.89
-9.80
-11.36
-8.61
-2.96
2.73
4.59
-1.38
-17.63
-43.44
-74.12
-101.88
-118.57
-118.92
-103.19
-77.11
-49.47
-28.22
-17.25
-15.53
-18.65
-21.86
-22.40
-20.17
-16.72
-13.37
-10.17
-6.02
0.19
8.51
17.52
24.89
28.60
27.95
23.97
18.90
15.18
14.34
16.45
20.23
23.76
25.44
24.65
21.89
18.35
15.21
13.04
11.67
10.40
8.41
5.27
1.07
-3.57
-7.81
-10.96
-12.83
-13.80
-14.67
-16.27
-18.93
-22.29
-25.33
-26.82
-25.84
-22.18
-16.39
-9.58
-3.00
2.27
5.53
6.64
6.03
4.61
3.42
3.27
4.39
6.36
8.45
9.98
10.65
10.58
10.10
9.36
8.28
6.65
4.37
1.68
-0.91
-2.81
-3.58
-3.07
-1.46
0.82
3.24
5.25
6.45
6.70
6.14
5.18
4.29
3.81
3.78
3.95
4.05
3.98
3.92
4.16
4.83
5.71
6.38
6.43
5.69
4.40
3.01
1.90
1.22
0.84
0.54
0.16
-0.23
-0.45
-0.34
0.17
1.02
2.03
3.02
3.85
4.42
4.72
4.80
4.74
4.60
4.44
4.25
3.94
3.45
2.72
1.79
0.83
0.00
-0.53
-0.72
-0.58
-0.21
0.33
0.97
1.65
2.17
2.13
1.12
-1.11
-4.41
-8.25
-11.86
-14.57
-15.95
-15.80
-14.08
-10.76
-5.99
-0.27
5.45
9.98
12.42
12.57
11.13
9.36
8.50
9.13
11.05
13.49
15.63
16.94
17.27
16.75
15.51
13.60
11.10
8.20
5.30
2.92
1.49
1.20
1.82
2.81
3.50
3.37
2.23
0.34
-1.77
-3.49
-4.36
-4.25
-3.40
-2.29
-1.40
-1.08
-1.42
-2.24
-3.24
-4.10
-4.66
-4.89
-4.92
-4.82
-4.65
-4.33
-3.81
-3.06
-2.12
-1.12
-0.21
0.44
0.73
0.61
0.13
-0.55
-1.23
-1.76
-2.10
-2.27
-2.35
-2.33
-2.10
-1.59
-0.83
-0.06
0.42
0.41
-0.06
-0.71
-1.14
-1.09
-0.56
0.20
0.83
1.05
0.81
0.26
-0.37
-0.87
-1.18
-1.37
-1.53
-1.71
-1.87
-1.89
-1.75
-1.49
-1.21
-1.02
-0.96
-1.03
-1.15
-1.24
-1.26
-1.19
-1.00
-0.68
-0.28
0.16
0.60
1.01
1.42
1.86
2.27
2.54
2.57
2.31
1.93
1.65
1.62
1.79
1.90
1.66
0.95
-0.08
-1.09
-1.70
-1.73
-1.24
-0.49
0.27
0.86
1.22
1.36
1.26
0.91
0.37
-0.26
-0.81
-1.13
-1.15
-0.93
-0.65
-0.47
-0.50
-0.68
-0.87
-0.88
-0.64
-0.19
0.27
0.49
0.33
-0.23
-1.03
-1.81
-2.31
-2.40
-2.10
-1.50
-0.77
-0.04
0.55
0.85
0.74
0.14
-0.84
-1.94
-2.76
-3.02
-2.70
-2.03
-1.43
-1.21
-1.47
-2.09
-2.82
-3.47
-3.96
-4.26
-4.29
-3.92
-3.10
-1.97
-0.86
-0.10
0.15
0.04
-0.08
0.11
0.67
1.41
2.03
2.36
2.51
2.81
3.62
5.09
7.12
9.31
11.21
12.43
12.81
12.39
11.43
10.40
9.79
10.03
11.25
13.14
15.11
16.43
16.58
15.42
13.28
10.73
8.31
6.35
4.82
3.56
2.40
1.35
0.54
0.04
-0.26
-0.68
-1.67
-3.50
-6.11
-9.12
-11.97
-14.21
-15.68
-16.51
-16.94
-17.27
-17.60
-17.94
-18.17
-18.19
-17.95
-17.47
-16.82
-15.97
-14.83
-13.27
-11.25
-8.88
-6.42
-4.23
-2.61
-1.72
-1.47
-1.61
-1.78
-1.68
-1.23
-0.48
0.38
1.10
1.56
1.75
1.87
2.27
3.20
4.71
6.60
8.40
9.64
9.99
9.35
7.89
6.01
4.15
2.72
1.97
1.89
2.22
2.58
2.59
2.07
1.04
-0.23
-1.41
-2.22
-2.57
-2.51
-2.16
-1.68
-1.20
-0.81
-0.66
-0.78
-1.15
-1.65
-2.06
-2.22
-2.03
-1.46
-0.59
0.41
1.35
2.04
2.35
2.25
1.75
1.02
0.31
-0.06
0.14
1.02
2.36
3.75
4.67
4.83
4.32
3.56
3.05
3.08
3.51
3.89
3.74
2.88
1.56
0.32
-0.36
-0.25
0.56
1.74
2.95
3.89
4.38
4.33
3.81
3.06
2.51
2.61
3.62
5.45
7.53
9.06
9.32
8.00
5.37
2.14
-0.82
-2.84
-3.66
-3.51
-2.94
-2.53
-2.60
-3.10
-3.66
-3.82
-3.38
-2.47
-1.59
-1.33
-2.07
-3.74
-5.86
-7.70
-8.70
-8.71
-8.09
-7.40
-7.06
-7.15
-7.39
-7.33
-6.72
-5.56
-4.17
-2.89
-1.93
-1.31
-0.97
-0.88
-1.12
-1.73
-2.50
-2.99
-2.64
-1.20
1.05
3.28
4.49
4.09
2.27
-0.07
-1.75
-1.98
-0.79
1.04
2.55
3.14
2.91
2.46
2.44
3.05
3.98
4.57
4.30
3.07
1.30
-0.37
-1.35
-1.36
-0.42
1.22
3.17
5.02
6.36
6.91
6.55
5.41
3.82
2.22
1.02
0.51
0.77
1.72
3.13
4.64
5.88
6.45
6.09
4.73
2.67
0.44
-1.35
-2.30
-2.37
-1.91
-1.46
-1.49
-2.12
-3.16
-4.19
-4.92
-5.27
-5.45
-5.68
-5.94
-5.97
-5.39
-4.02
-2.08
-0.13
1.15
1.30
0.27
-1.53
-3.48
-4.93
-5.46
-4.92
-3.46
-1.43
0.63
2.28
3.24
3.60
3.74
4.08
4.84
5.83
6.58
6.58
5.69
4.19
2.68
1.77
1.76
2.49
3.46
4.09
4.01
3.20
1.92
0.57
-0.57
-1.42
-2.04
-2.56
-3.03
-3.41
-3.66
-3.79
-3.89
-4.07
-4.43
-4.96
-5.59
-6.23
-6.79
-7.20
-7.42
-7.35
-6.89
-6.02
-4.83
-3.54
-2.37
-1.51
-0.93
-0.47
0.18
1.28
2.92
4.98
7.12
8.83
9.66
9.32
7.88
5.77
3.66
2.24
1.93
2.72
4.09
5.25
5.45
4.31
2.00
-0.88
-3.58
-5.53
-6.50
-6.58
-6.10
-5.39
-4.70
-4.21
-3.99
-4.05
-4.36
-4.80
-5.15
-5.20
-4.76
-3.82
-2.45
-0.79
1.03
2.87
4.38
4.92
3.67
0.12
-5.37
-11.21
-14.99
-14.58
-9.45
-1.45
5.81
8.62
5.12
-3.63
-14.01
-21.44
-22.46
-16.03
-3.85
10.54
23.22
31.19
33.02
28.87
20.20
9.50
0.19
-3.93
0.16
13.24
32.59
52.16
64.66
64.73
51.79
30.99
11.01
-0.22
0.29
8.86
17.21
17.09
4.86
-16.53
-39.15
-54.37
-57.31
-49.02
-35.55
-24.33
-20.30
-23.65
-30.32
-34.90
-33.74
-26.87
-17.50
-9.91
-6.92
-8.46
-11.94
-14.01
-12.51
-7.59
-1.32
3.72
5.87
5.15
2.98
1.12
0.75
1.93
3.87
5.56
6.42
6.55
6.68
7.72
10.16
13.78
17.56
20.16
20.49
18.37
14.66
10.99
8.95
9.25
11.40
14.00
15.45
14.80
11.98
7.62
2.37
-3.37
-9.47
-15.73
-21.51
-25.87
-27.92
-27.31
-24.37
-20.04
-15.36
-11.16
-7.82
-5.32
-3.33
-1.40
1.00
4.16
7.93
11.75
14.74
16.10
15.45
13.01
9.47
5.67
2.42
0.31
-0.34
0.46
2.31
4.40
5.73
5.45
3.21
-0.65
-5.27
-9.46
-12.05
-12.16
-9.44
-4.27
2.21
8.31
12.24
12.76
9.62
3.69
-3.40
-9.92
-14.63
-16.98
-16.97
-14.81
-10.71
-5.08
1.30
7.06
10.72
11.32
9.02
5.24
2.00
0.93
2.40
5.34
7.81
8.13
5.66
1.15
-3.77
-7.32
-8.37
-6.75
-3.16
1.19
5.05
7.53
8.31
7.59
5.82
3.50
1.15
-0.36
0.13
3.87
11.40
21.79
32.41
39.72
40.68
34.24
22.03
7.70
-4.62
-12.00
-13.67
-10.94
-6.14
-1.51
1.53
2.57
1.83
-0.21
-3.17
-6.76
-10.54
-13.81
-15.72
-15.58
-13.24
-9.47
-5.76
-3.82
-4.75
-8.45
-13.52
-17.87
-19.75
-18.60
-15.43
-12.23
-10.96
-12.64
-16.83
-22.04
-26.48
-28.94
-29.05
-27.23
-24.08
-20.05
-15.37
-10.19
-4.84
0.17
4.36
7.53
9.90
11.91
13.93
15.96
17.65
18.51
18.19
16.82
15.06
13.90
14.29
16.68
20.73
25.34
29.09
30.63
29.29
25.17
19.19
12.72
7.30
4.32
4.85
9.52
18.24
29.87
42.16
52.16
57.17
55.90
48.97
38.57
27.35
17.23
8.80
1.69
-4.64
-10.23
-14.69
-17.79
-20.09
-22.98
-28.04
-36.15
-46.91
-58.87
-70.11
-78.87
-83.82
-84.02
-78.98
-69.13
-56.20
-43.25
-33.98
-31.19
-35.32
-43.80
-51.80
-53.86
-46.27
-28.52
-3.73
22.45
43.72
55.39
55.93
47.51
35.31
25.71
24.00
32.57
50.03
71.59
90.67
100.81
97.66
80.31
51.66
18.12
-12.05
-30.86
-33.19
-18.91
6.53
33.45
51.19
52.05
34.36
3.16
-31.76
-59.62
-72.59
-68.19
-49.34
-22.46
5.11
27.28
40.14
41.97
33.18
16.02
-5.53
-26.36
-41.43
-47.56
-44.31
-34.02
-20.49
-7.28
3.47
11.33
16.80
20.46
22.59
23.26
22.78
21.58
20.09
18.34
16.06
13.10
10.04
8.18
8.98
13.05
19.26
25.01
27.26
24.22
16.38
6.42
-2.08
-6.51
-6.44
-3.75
-1.32
-1.46
-4.81
-10.41
-16.60
-22.15
-26.76
-30.75
-34.42
-37.45
-39.04
-38.55
-36.00
-32.24
-28.45
-25.62
-24.21
-24.20
-25.44
-27.98
-31.78
-36.39
-40.64
-42.79
-41.23
-35.33
-26.04
-15.74
-7.41
-3.37
-4.27
-8.74
-14.01
-17.25
-16.69
-12.41
-5.93
0.63
5.72
8.85
10.49
11.46
12.40
13.54
14.91
16.63
18.94
22.13
26.10
30.34
33.98
36.10
36.01
33.48
28.73
22.36
15.25
8.35
2.57
-1.38
-3.12
-2.66
-0.37
3.06
6.60
9.03
9.13
6.17
0.38
-6.85
-13.38
-17.05
-16.75
-12.88
-7.19
-1.89
1.37
2.20
1.37
0.17
-0.39
-0.14
0.44
0.68
0.36
-0.11
-0.02
1.19
3.34
5.53
6.53
5.56
2.78
-0.60
-2.84
-2.62
0.31
4.87
9.20
11.54
10.95
7.59
2.46
-3.02
-7.41
-9.46
-8.39
-3.99
3.00
11.00
17.94
22.00
22.42
19.74
15.46
11.11
7.49
4.49
1.46
-1.94
-5.31
-7.67
-8.12
-6.46
-3.52
-0.75
0.61
0.19
-1.30
-2.58
-2.45
-0.51
2.74
6.28
9.12
10.73
11.05
10.20
8.23
5.10
0.87
-4.04
-8.78
-12.24
-13.50
-12.28
-9.01
-4.80
-0.97
1.48
2.16
1.42
0.01
-1.33
-2.26
-2.93
-3.74
-4.94
-6.34
-7.42
-7.66
-6.97
-5.83
-4.96
-4.80
-5.13
-5.17
-4.08
-1.63
1.49
3.95
4.43
2.37
-1.68
-6.33
-9.98
-11.50
-10.66
-8.08
-4.81
-1.92
-0.13
0.23
-0.83
-3.04
-5.90
-8.72
-10.66
-10.90
-8.94
-4.81
0.76
6.57
11.21
13.67
13.61
11.54
8.63
6.20
5.24
6.04
8.21
10.92
13.33
14.90
15.43
14.96
13.60
11.47
8.77
5.93
3.49
1.87
1.19
1.10
0.93
0.12
-1.52
-3.57
-5.24
-5.84
-5.13
-3.47
-1.63
-0.32
0.14
-0.11
-0.70
-1.39
-2.26
-3.56
-5.46
-7.74
-9.78
-10.82
-10.37
-8.43
-5.62
-2.85
-0.85
0.04
0.04
-0.32
-0.49
-0.18
0.49
1.19
1.48
1.11
0.08
-1.42
-3.05
-4.49
-5.49
-5.88
-5.55
-4.55
-3.05
-1.43
-0.13
0.46
0.22
-0.63
-1.61
-2.18
-1.98
-1.09
-0.00
0.66
0.43
-0.66
-2.14
-3.31
-3.65
-3.10
-2.02
-0.93
-0.24
-0.03
-0.09
-0.09
0.25
1.02
2.18
3.60
5.09
6.45
7.43
7.86
7.65
6.87
5.67
4.28
2.90
1.68
0.73
0.08
-0.28
-0.37
-0.26
0.10
0.78
1.86
3.30
4.90
6.28
7.00
6.75
5.39
3.11
0.32
-2.34
-4.23
-4.84
-4.00
-1.99
0.61
3.10
5.00
6.20
6.87
7.33
7.69
7.82
7.46
6.43
4.76
2.68
0.44
-1.77
-3.83
-5.60
-6.78
-7.00
-5.99
-3.84
-1.16
1.08
1.95
1.06
-1.24
-4.02
-6.18
-7.07
-6.71
-5.63
-4.50
-3.68
-3.09
-2.39
-1.30
0.08
1.31
1.79
1.17
-0.50
-2.71
-4.73
-5.98
-6.11
-5.20
-3.62
-1.77
0.04
1.69
3.15
4.28
4.75
4.22
2.53
-0.05
-2.80
-4.92
-5.78
-5.29
-3.77
-1.79
0.25
2.23
4.18
6.12
7.77
8.62
8.17
6.22
3.15
-0.16
-2.67
-3.64
-2.99
-1.34
0.33
1.19
0.89
-0.25
-1.50
-2.12
-1.79
-0.72
0.44
0.95
0.32
-1.43
-3.83
-6.11
-7.57
-7.88
-7.17
-6.08
-5.40
-5.67
-6.91
-8.43
-9.12
-8.05
-4.94
-0.45
4.08
7.15
7.68
5.24
0.02
-7.25
-15.30
-22.14
-25.24
-22.15
-11.71
4.89
23.88
40.05
48.76
47.91
38.68
24.76
10.46
-1.11
-8.84
-13.24
-15.23
-15.34
-13.45
-9.34
-3.45
2.93
8.09
10.63
10.20
7.68
4.56
2.28
1.59
2.29
3.55
4.40
4.23
2.97
1.05
-0.87
-2.15
-2.43
-1.68
-0.23
1.40
2.72
3.39
3.46
3.28
3.40
4.17
5.62
7.32
8.60
8.78
7.48
4.77
1.13
-2.68
-5.94
-8.13
-9.06
-8.86
-7.83
-6.37
-4.81
-3.38
-2.20
-1.24
-0.35
0.63
1.79
2.98
3.82
3.77
2.34
-0.70
-5.05
-9.90
-14.12
-16.72
-17.13
-15.49
-12.51
-9.09
-5.96
-3.37
-1.13
1.10
3.51
5.92
7.85
8.79
8.58
7.52
6.26
5.51
5.65
6.56
7.68
8.34
8.03
6.62
4.35
1.70
-0.83
-2.85
-4.12
-4.54
-4.20
-3.38
-2.49
-1.95
-2.01
-2.62
-3.42
-3.99
-4.11
-3.86
-3.74
-4.22
-5.66
-8.00
-10.70
-12.90
-13.64
-12.28
-8.81
-3.99
0.74
3.73
3.64
-0.03
-6.65
-14.67
-22.06
-26.96
-28.23
-25.61
-19.85
-12.36
-4.79
1.45
5.55
7.48
7.77
7.16
6.24
5.25
4.17
3.01
1.83
0.92
0.51
0.57
0.87
1.05
0.94
0.72
0.91
2.01
4.17
7.07
9.99
12.08
12.85
12.23
10.57
8.44
6.30
4.50
3.15
2.26
1.77
1.56
1.46
1.29
0.97
0.61
0.47
0.87
2.00
3.76
5.76
7.49
8.57
8.93
8.82
8.72
9.03
9.93
11.29
12.88
14.33
15.35
15.58
14.71
12.60
9.38
5.60
2.10
-0.38
-1.50
-1.51
-1.14
-1.22
-2.29
-4.27
-6.56
-8.36
-9.02
-8.41
-6.95
-5.40
-4.44
-4.41
-5.14
-6.09
-6.76
-6.98
-6.95
-7.07
-7.52
-8.04
-8.00
-6.85
-4.65
-2.15
-0.50
-0.54
-2.31
-4.95
-7.20
-8.02
-7.11
-4.98
-2.53
-0.48
0.88
1.78
2.60
3.59
4.68
5.61
6.11
6.07
5.56
4.81
4.11
3.73
3.80
4.25
4.88
5.38
5.48
5.07
4.24
3.19
2.15
1.16
0.08
-1.26
-2.94
-4.78
-6.41
-7.44
-7.69
-7.24
-6.44
-5.61
-4.92
-4.36
-3.79
-3.16
-2.51
-2.04
-1.90
-2.12
-2.57
-3.01
-3.22
-3.02
-2.39
-1.43
-0.37
0.57
1.18
1.48
1.65
1.95
2.55
3.45
4.44
5.27
5.75
5.82
5.52
4.87
3.81
2.28
0.34
-1.76
-3.60
-4.69
-4.79
-3.97
-2.63
-1.33
-0.54
-0.43
-0.86
-1.49
-1.95
-2.03
-1.68
-0.94
0.13
1.48
3.02
4.51
5.54
5.62
4.41
1.98
-1.16
-4.18
-6.33
-7.22
-6.96
-6.04
-5.03
-4.28
-3.80
-3.37
-2.71
-1.72
-0.51
0.65
1.50
1.88
1.84
1.59
1.37
1.42
1.80
2.41
3.03
3.47
3.69
3.78
3.90
4.06
4.06
3.59
2.41
0.63
-1.32
-2.82
-3.40
-2.97
-1.83
-0.53
0.47
0.98
1.10
1.09
1.14
1.30
1.55
1.79
1.95
2.01
1.94
1.70
1.22
0.40
-0.78
-2.26
-3.87
-5.39
-6.59
-7.31
-7.52
-7.29
-6.80
-6.22
-5.71
-5.32
-5.04
-4.85
-4.82
-5.11
-5.88
-7.19
-8.87
-10.59
-12.00
-12.88
-13.27
-13.37
-13.36
-13.28
-13.05
-12.71
-12.63
-13.50
-15.90
-19.62
-23.34
-24.92
-22.43
-15.40
-5.53
3.82
9.12
8.51
2.78
-5.03
-11.18
-12.98
-10.01
-4.02
2.15
5.86
5.77
1.87
-4.98
-13.73
-23.23
-31.93
-37.33
-36.29
-26.49
-8.48
13.15
30.76
37.17
29.80
13.08
-3.13
-8.84
0.30
20.20
40.80
52.21
50.48
38.85
24.20
11.38
0.18
-13.07
-30.71
-49.92
-63.24
-63.02
-46.73
-18.81
11.95
37.44
53.83
61.57
62.31
56.18
41.86
19.17
-8.22
-32.88
-46.73
-45.30
-29.95
-6.36
19.65
45.61
73.09
104.73
140.35
174.48
197.76
201.27
181.25
141.65
92.74
46.72
12.53
-6.92
-14.76
-16.93
-18.63
-22.08
-26.44
-29.56
-29.83
-27.09
-21.81
-14.42
-4.38
9.38
27.34
48.37
69.22
84.94
89.91
80.58
56.02
19.39
-22.28
-60.00
-85.79
-95.92
-91.68
-79.30
-67.16
-62.08
-66.22
-76.41
-86.61
-91.72
-90.72
-87.26
-88.17
-99.19
-122.50
-155.64
-192.60
-225.93
-249.03
-258.10
-252.53
-234.62
-208.33
-178.04
-147.29
-118.00
-90.94
-66.05
-42.92
-21.00
0.62
23.54
50.07
81.99
118.96
157.26
190.33
211.11
214.92
201.93
177.18
148.37
122.61
103.95
92.69
86.68
83.37
81.26
79.89
78.98
77.09
71.49
59.12
39.13
14.59
-7.37
-17.76
-10.10
15.66
51.80
85.42
104.01
101.21
79.42
48.21
19.19
0.70
-4.84
-0.05
10.60
24.00
39.55
57.89
78.97
100.49
118.57
129.38
131.11
124.88
113.87
101.71
90.52
80.18
68.65
53.24
32.80
8.84
-14.78
-33.57
-44.46
-47.40
-45.23
-42.31
-42.73
-48.88
-61.27
-78.88
-99.71
-120.96
-139.08
-150.31
-151.90
-143.48
-127.58
-108.87
-91.65
-77.91
-66.56
-54.88
-40.86
-24.66
-8.53
5.06
14.87
21.44
25.90
28.50
28.23
23.87
15.48
5.42
-2.16
-3.04
5.12
21.60
42.99
64.21
79.93
86.15
81.25
66.96
48.23
31.67
22.85
23.57
30.72
37.83
38.86
31.63
18.82
5.98
-2.57
-6.68
-10.39
-18.75
-34.02
-53.51
-71.08
-81.08
-81.97
-77.05
-72.26
-72.11
-76.93
-82.92
-84.82
-79.29
-66.46
-49.34
-31.71
-16.52
-5.50
0.26
-0.10
-6.93
-19.16
-33.71
-46.11
-52.31
-50.43
-41.70
-29.89
-19.33
-13.10
-12.08
-15.19
-20.44
-26.05
-30.75
-33.61
-33.75
-30.29
-22.70
-11.25
2.78
17.20
29.48
37.58
40.56
38.79
33.65
26.94
20.21
14.32
9.35
4.99
0.97
-2.66
-5.43
-6.72
-6.13
-3.77
-0.14
3.94
7.84
11.30
14.45
17.62
21.05
24.74
28.35
31.36
33.23
33.50
31.88
28.29
23.00
16.73
10.48
5.36
2.21
1.29
2.15
3.91
5.55
6.32
5.83
4.08
1.27
-2.35
-6.52
-10.84
-14.72
-17.36
-18.01
-16.29
-12.36
-7.06
-1.58
2.85
5.32
5.51
3.74
0.87
-2.00
-3.94
-4.54
-4.00
-3.07
-2.55
-2.93
-4.13
-5.66
-7.03
-8.08
-9.06
-10.29
-11.79
-13.08
-13.41
-12.33
-9.95
-7.06
-4.68
-3.52
-3.73
-5.03
-7.04
-9.45
-11.96
-13.94
-14.37
-12.26
-7.38
-0.71
5.77
9.89
10.43
7.63
3.21
-0.49
-1.40
1.64
8.83
19.61
32.92
47.14
60.11
69.26
72.31
68.17
57.54
42.80
27.20
13.79
4.53
-0.10
-0.89
0.56
2.44
3.26
2.00
-1.75
-7.74
-15.05
-22.21
-27.46
-29.35
-27.34
-22.02
-15.08
-8.66
-4.42
-2.90
-3.32
-4.06
-3.58
-1.27
2.22
5.48
7.12
6.52
4.10
0.95
-1.73
-3.24
-3.53
-3.05
-2.40
-1.94
-1.61
-1.09
-0.03
1.64
3.59
5.28
6.32
6.72
6.78
6.78
6.50
5.25
2.20
-2.86
-9.18
-15.18
-19.19
-20.37
-19.13
-16.79
-14.80
-13.90
-13.81
-13.56
-12.23
-9.49
-5.86
-2.29
0.29
1.39
1.11
-0.07
-1.57
-2.97
-4.11
-4.98
-5.61
-5.90
-5.63
-4.56
-2.63
-0.06
2.64
4.82
5.98
5.95
4.95
3.51
2.21
1.47
1.43
1.91
2.56
3.06
3.27
3.26
3.24
3.29
3.35
3.15
2.38
1.00
-0.77
-2.39
-3.39
-3.63
-3.38
-3.18
-3.43
-4.05
-4.44
-3.83
-1.67
2.02
6.63
11.33
15.38
18.39
20.23
20.80
19.86
17.05
12.11
5.17
-3.12
-11.75
-19.57
-25.63
-29.32
-30.34
-28.69
-24.64
-18.78
-12.04
-5.51
-0.22
3.19
4.74
4.95
4.65
4.56
4.98
5.68
6.05
5.41
3.38
0.08
-3.97
-8.10
-11.68
-14.22
-15.25
-14.24
-10.67
-4.40
3.95
12.79
19.88
23.13
21.50
15.58
7.42
-0.31
-5.37
-6.85
-5.27
-2.20
0.62
2.01
1.72
0.25
-1.55
-3.04
-3.94
-4.29
-4.16
-3.41
-1.82
0.81
4.29
8.06
11.27
13.22
13.68
13.03
11.99
11.31
11.41
12.20
13.33
14.38
15.08
15.30
14.87
13.45
10.59
5.95
-0.44
-8.00
-15.65
-22.09
-26.07
-26.76
-23.86
-17.83
-9.89
-2.04
3.50
4.96
1.85
-4.62
-11.99
-17.52
-19.47
-17.77
-13.81
-9.51
-6.19
-4.08
-2.56
-0.93
0.88
2.22
2.31
0.91
-1.31
-3.17
-3.76
-3.02
-1.95
-1.85
-3.41
-6.15
-8.51
-8.64
-5.49
0.52
7.60
13.38
15.95
14.68
10.28
4.30
-1.57
-6.21
-9.24
-10.77
-11.01
-9.88
-7.03
-2.17
4.59
12.50
20.32
26.65
30.47
31.43
29.89
26.61
22.41
17.78
12.88
7.70
2.40
-2.58
-6.57
-8.93
-9.31
-7.72
-4.50
-0.26
4.26
8.15
10.57
10.83
8.71
4.64
-0.51
-5.72
-10.28
-13.98
-16.91
-19.17
-20.53
-20.55
-18.84
-15.46
-11.05
-6.55
-2.79
-0.14
1.57
2.87
4.20
5.67
6.94
7.52
7.05
5.55
3.54
1.69
0.57
0.29
0.53
0.73
0.39
-0.56
-1.84
-2.90
-3.27
-2.82
-1.75
-0.49
0.52
0.97
0.86
0.35
-0.18
-0.34
0.18
1.45
3.20
4.91
5.99
6.11
5.23
3.60
1.56
-0.65
-2.99
-5.47
-7.99
-10.26
-11.79
-12.12
-11.04
-8.76
-5.78
-2.77
-0.29
1.33
2.06
2.07
1.66
1.18
0.91
1.08
1.76
2.86
4.08
4.85
4.51
2.66
-0.50
-3.93
-6.09
-5.60
-2.11
3.35
8.75
12.09
12.46
10.57
8.39
7.98
10.54
15.61
21.30
25.22
25.54
21.84
15.28
8.22
3.14
1.60
3.78
8.83
15.44
22.33
28.25
31.58
30.63
24.34
13.55
1.48
-7.17
-8.66
-2.44
8.11
17.28
20.23
15.56
5.96
-3.82
-10.06
-12.38
-13.77
-18.38
-28.78
-44.08
-60.19
-71.67
-74.32
-67.18
-52.77
-35.94
-21.84
-13.78
-12.04
-14.12
-16.14
-14.86
-9.23
-0.55
8.41
15.13
18.75
20.45
22.47
26.55
32.57
38.19
40.13
35.86
25.19
10.58
-3.85
-14.20
-18.32
-16.46
-10.97
-4.92
-0.89
-0.16
-2.70
-7.68
-14.09
-20.83
-26.53
-29.27
-26.88
-18.12
-3.83
12.58
25.92
31.29
26.54
13.44
-3.03
-17.03
-24.84
-26.11
-23.11
-18.36
-12.72
-5.16
5.71
19.96
35.49
49.19
58.52
63.36
66.29
71.41
82.39
100.63
124.48
150.07
172.41
186.81
189.63
178.91
155.04
121.45
84.78
53.47
34.88
31.72
40.05
49.68
47.76
24.80
-20.56
-80.39
-141.67
-192.63
-228.00
-249.95
-264.82
-277.83
-289.76
-296.62
-292.63
-273.91
-240.85
-198.40
-154.46
-117.13
-91.86
-79.31
-74.94
-70.38
-56.68
-28.24
14.09
62.68
106.04
133.61
139.82
125.58
97.19
63.50
32.82
10.96
0.55
1.57
12.21
29.79
51.45
74.22
94.95
110.53
118.40
117.35
108.17
93.55
76.95
61.33
48.09
36.80
26.27
15.62
4.93
-4.87
-12.63
-17.75
-20.17
-20.08
-17.74
-13.39
-7.49
-0.93
4.99
8.84
9.51
6.72
1.27
-5.19
-10.64
-13.58
-13.68
-11.87
-9.79
-8.90
-9.70
-11.71
-13.99
-15.82
-17.07
-17.90
-18.09
-16.73
-12.52
-4.69
6.18
18.04
28.21
34.61
36.57
34.93
31.15
26.18
20.00
11.90
1.55
-10.08
-20.53
-26.57
-25.69
-17.44
-3.91
10.86
22.44
27.76
26.19
19.53
11.00
3.70
-0.69
-2.37
-3.06
-5.09
-10.53
-20.60
-35.37
-53.39
-71.34
-84.07
-85.61
-71.41
-41.29
-1.15
38.09
64.54
70.65
56.82
31.14
5.30
-10.97
-14.02
-6.57
5.17
15.56
21.98
24.74
25.02
22.94
17.23
6.48
-8.93
-26.05
-40.15
-46.64
-43.12
-30.40
-12.14
6.50
20.80
28.01
28.07
23.27
17.09
12.93
12.98
17.82
26.70
38.26
51.12
63.96
75.28
83.04
84.91
79.15
65.61
46.28
24.80
5.13
-9.91
-19.24
-23.24
-22.75
-18.22
-9.67
2.61
17.35
31.87
42.54
45.80
39.49
23.85
1.88
-21.40
-40.37
-50.86
-51.72
-45.23
-35.88
-28.19
-24.63
-24.82
-26.40
-26.96
-25.62
-23.39
-22.32
-24.32
-30.14
-39.04
-48.98
-56.89
-59.30
-53.38
-38.33
-16.34
7.64
27.47
38.45
39.26
32.33
22.26
13.32
7.46
4.18
1.74
-1.09
-4.08
-6.01
-5.85
-3.85
-1.67
-1.56
-5.06
-12.05
-20.64
-28.02
-31.69
-30.45
-24.85
-16.78
-8.65
-2.52
0.53
0.50
-1.71
-4.83
-7.57
-8.98
-8.54
-6.24
-2.49
1.94
6.14
9.34
11.21
11.90
11.91
11.78
11.70
11.47
10.66
9.00
6.55
3.55
0.04
-4.38
-10.40
-18.28
-27.12
-34.60
-37.77
-34.41
-24.35
-9.83
5.25
17.01
23.03
23.06
18.61
11.94
5.10
-0.59
-4.57
-6.59
-6.49
-4.06
0.65
6.94
13.19
17.05
16.27
9.77
-1.55
-14.77
-26.05
-32.19
-31.95
-26.46
-18.69
-12.48
-11.53
-18.29
-33.04
-53.11
-73.18
-87.07
-90.51
-83.35
-69.70
-55.87
-47.16
-45.34
-48.38
-51.94
-51.82
-45.42
-31.97
-12.05
12.90
40.11
65.24
83.05
89.44
83.79
70.28
56.82
51.88
60.32
80.60
104.66
121.12
120.92
101.81
69.71
35.35
8.60
-6.45
-12.74
-17.36
-26.38
-40.83
-56.57
-67.33
-69.04
-62.34
-51.65
-42.35
-37.78
-38.03
-40.70
-42.27
-39.60
-30.76
-15.50
4.40
25.63
44.57
58.49
66.35
68.40
65.42
57.76
45.05
27.37
6.30
-14.43
-30.00
-36.45
-32.59
-20.65
-5.15
9.41
20.37
27.34
31.13
31.97
28.52
18.60
1.04
-22.59
-47.65
-67.87
-77.85
-74.95
-59.69
-35.37
-6.72
20.67
40.94
49.15
43.16
25.66
4.37
-10.10
-8.68
12.52
50.63
97.66
143.08
176.77
190.51
179.13
142.29
86.09
23.38
-29.55
-58.81
-59.09
-36.61
-6.75
12.56
8.48
-21.75
-70.06
-121.36
-159.39
-172.38
-157.22
-120.21
-74.85
-36.64
-17.04
-19.06
-36.83
-58.91
-73.92
-75.66
-65.12
-48.68
-33.76
-25.21
-23.37
-25.38
-27.82
-28.37
-26.49
-22.29
-15.49
-5.06
10.00
29.39
50.88
70.65
84.26
87.77
79.12
59.58
34.39
11.70
0.04
3.93
21.06
42.83
58.90
63.23
57.53
49.72
48.28
56.62
71.17
84.38
90.16
87.39
79.57
71.39
65.16
59.94
53.48
44.52
33.81
23.04
13.14
3.30
-8.00
-21.16
-34.53
-44.81
-49.11
-46.80
-39.76
-30.99
-22.12
-11.99
2.52
23.41
48.44
70.37
79.76
70.30
43.03
6.97
-24.80
-41.10
-37.10
-14.87
19.32
58.26
95.40
124.38
138.48
131.89
103.42
59.74
14.95
-14.74
-18.65
2.68
37.38
67.89
79.17
64.88
28.77
-18.10
-62.93
-95.81
-111.90
-111.57
-99.33
-82.28
-68.50
-64.91
-75.43
-99.87
-134.32
-172.61
-207.96
-233.75
-243.76
-232.92
-199.45
-146.80
-84.19
-23.89
23.65
54.06
69.87
77.16
80.03
77.32
63.61
33.80
-11.63
-64.45
-111.70
-141.48
-148.34
-135.07
-110.05
-82.33
-57.98
-38.72
-23.50
-10.73
-0.10
7.18
9.75
7.86
4.14
2.94
8.18
21.17
40.11
61.36
81.16
96.81
106.70
109.81
105.62
94.86
80.14
66.08
57.66
57.74
65.15
75.01
80.93
77.95
64.52
42.59
16.48
-8.78
-29.21
-42.90
-50.49
-54.63
-58.09
-61.29
-61.21
-52.86
-33.42
-5.84
20.74
34.78
29.10
5.61
-24.60
-46.81
-50.75
-35.83
-10.91
11.01
19.60
11.61
-8.94
-33.51
-53.24
-61.96
-57.50
-41.40
-17.71
8.23
31.12
46.48
51.36
44.89
28.90
8.47
-8.78
-15.00
-5.55
18.31
49.32
77.41
94.30
97.05
88.30
73.27
55.94
37.13
16.06
-6.42
-25.77
-34.89
-28.07
-5.35
26.17
54.98
70.13
66.00
44.07
11.70
-20.76
-43.53
-50.07
-39.20
-15.61
11.57
32.21
39.42
32.75
18.24
5.05
0.38
5.72
16.87
27.40
32.88
33.04
30.68
28.84
28.30
27.60
24.48
17.87
8.68
-1.03
-9.34
-14.99
-17.37
-16.35
-12.53
-7.70
-4.82
-6.76
-14.66
-26.80
-39.03
-46.63
-46.58
-38.62
-24.99
-9.01
6.04
17.50
23.28
22.08
14.09
1.76
-10.18
-16.29
-13.10
-1.47
13.08
22.84
21.72
8.83
-10.74
-28.30
-35.98
-30.66
-15.37
2.66
16.04
20.88
17.97
11.20
4.55
-0.40
-4.63
-9.80
-15.90
-20.55
-20.36
-13.65
-2.61
7.15
9.27
0.52
-16.74
-35.41
-47.15
-47.14
-36.62
-21.91
-10.85
-8.99
-17.94
-36.37
-62.11
-93.11
-126.59
-157.34
-177.13
-176.63
-150.05
-99.44
-35.81
24.46
66.29
81.77
72.44
47.29
18.37
-3.53
-11.46
-3.49
17.12
42.86
63.71
70.27
57.11
24.89
-19.81
-67.07
-107.41
-134.40
-145.47
-140.85
-122.45
-93.61
-59.46
-26.80
-2.37
9.15
6.10
-9.74
-34.54
-63.24
-91.53
-115.49
-131.64
-136.69
-129.03
-109.77
-82.91
-53.03
-22.92
7.97
43.59
88.94
147.04
214.77
286.50
351.50
399.10
421.97
418.64
394.16
358.23
322.14
295.00
281.11
279.73
287.52
299.13
311.14
321.77
328.61
326.28
309.00
267.86
196.57
97.06
-18.34
-130.16
-217.13
-264.39
-268.69
-238.57
-190.37
-141.12
-102.74
-79.96
-71.16
-71.53
-76.30
-82.27
-87.95
-93.39
-98.85
-104.72
-111.58
-119.98
-129.92
-140.52
-149.95
-155.95
-157.05
-153.02
-144.64
-133.16
-119.81
-105.57
-91.61
-79.58
-71.59
-69.70
-74.66
-85.02
-96.92
-104.93
-103.91
-91.35
-68.63
-40.89
-15.29
1.76
6.83
0.66
-12.33
-25.72
-33.28
-30.80
-17.29
4.63
29.42
50.13
60.82
58.95
46.58
29.17
12.95
1.67
-4.86
-9.35
-14.62
-21.27
-27.55
-31.40
-32.41
-32.00
-31.84
-31.71
-28.75
-19.71
-4.06
14.02
26.88
27.66
14.86
-5.85
-23.83
-28.61
-14.85
15.46
54.38
91.68
118.67
130.60
127.36
113.14
95.02
80.63
75.37
79.82
89.17
95.53
92.32
78.44
59.06
42.17
32.98
30.11
26.36
13.43
-11.79
-44.96
-76.93
-99.36
-109.81
-112.34
-113.61
-117.43
-121.77
-120.37
-107.77
-84.33
-57.83
-40.61
-43.14
-68.00
-107.33
-145.68
-166.96
-162.07
-133.10
-92.14
-55.39
-35.33
-35.43
-49.25
-64.63
-69.74
-58.14
-30.89
5.13
40.33
66.53
79.04
77.04
62.66
39.76
13.08
-12.32
-31.36
-40.19
-37.22
-24.34
-6.28
11.60
25.76
35.55
42.05
45.97
46.05
40.04
27.04
9.73
-5.96
-13.99
-12.11
-3.92
3.31
2.65
-8.11
-24.68
-38.36
-39.99
-24.36
7.31
47.75
86.78
115.31
129.20
130.78
127.09
125.16
128.05
132.94
133.02
124.11
108.24
94.66
96.06
121.24
170.30
233.26
293.56
334.67
345.10
322.20
271.63
203.80
129.71
58.41
-4.27
-55.38
-93.89
-119.95
-134.77
-140.51
-140.37
-138.29
-137.76
-141.25
-149.72
-162.62
-178.59
-196.03
-213.55
-230.40
-246.86
-263.00
-278.23
-291.13
-299.24
-299.72
-290.32
-270.06
-239.33
-200.17
-155.13
-106.85
-57.65
-9.47
36.22
78.63
117.97
154.73
188.34
216.46
234.87
239.15
227.08
200.63
166.35
133.15
108.98
97.82
98.39
105.09
110.49
108.35
95.95
75.01
50.75
29.67
16.79
13.56
17.43
23.36
26.52
24.82
19.80
15.31
14.80
18.86
24.56
26.95
21.91
8.48
-10.50
-29.72
-44.10
-50.85
-50.25
-44.75
-37.11
-29.07
-21.06
-12.71
-3.91
4.88
12.66
18.33
21.00
20.32
16.62
10.88
4.54
-1.01
-4.96
-7.45
-9.49
-12.43
-17.45
-25.10
-35.22
-46.89
-58.47
-67.66
-72.01
-69.76
-60.94
-47.85
-34.50
-25.00
-21.69
-24.28
-30.12
-35.44
-36.90
-32.55
-22.32
-8.00
7.25
19.79
26.77
27.17
22.16
14.41
6.74
0.83
-3.06
-5.67
-7.73
-9.32
-9.87
-8.56
-4.95
0.80
7.85
14.96
20.61
23.52
23.23
20.36
16.55
13.62
12.64
13.20
13.71
12.29
7.96
1.28
-5.85
-11.08
-12.56
-9.67
-3.07
5.58
14.04
20.20
22.67
21.30
17.26
12.53
8.93
7.24
6.92
6.56
4.92
1.71
-2.20
-5.24
-6.25
-5.36
-3.89
-3.56
-5.27
-8.30
-10.60
-10.02
-5.45
2.41
11.41
18.95
23.21
23.79
21.63
18.20
14.72
11.71
9.13
6.82
4.75
2.90
1.23
-0.37
-1.57
-1.49
1.17
7.27
16.40
26.54
34.58
37.67
34.62
26.55
16.51
8.18
4.41
6.35
13.37
23.23
32.63
37.59
34.60
21.66
-0.31
-27.53
-54.66
-76.92
-92.28
-101.90
-109.25
-117.96
-130.02
-145.17
-161.68
-177.61
-191.57
-202.50
-209.24
-210.34
-204.71
-192.48
-175.27
-155.91
-137.25
-120.85
-106.76
-93.71
-79.71
-62.40
-39.12
-7.30
34.34
84.45
138.08
187.28
223.65
241.42
240.15
225.56
207.64
196.63
199.11
213.83
232.93
245.97
245.24
229.57
204.64
179.56
161.73
153.16
149.17
142.68
128.47
106.04
79.42
54.18
33.57
16.57
-0.34
-20.21
-42.73
-64.27
-80.32
-88.55
-91.09
-94.15
-105.54
-130.77
-170.46
-219.43
-268.63
-307.86
-329.02
-327.96
-304.47
-262.52
-209.02
-152.32
-100.32
-58.70
-29.10
-8.07
12.02
40.32
83.11
139.57
200.14
249.04
270.59
256.46
210.23
146.54
85.07
42.51
26.59
34.65
56.74
80.60
95.90
96.18
78.98
45.61
1.29
-44.58
-80.32
-95.84
-87.10
-58.62
-22.01
9.17
25.01
22.82
6.63
-16.55
-40.78
-63.00
-81.75
-95.22
-100.18
-93.80
-76.42
-53.12
-32.00
-19.89
-18.28
-22.36
-24.45
-19.16
-6.98
6.14
12.95
10.26
1.43
-5.39
-2.10
14.91
43.49
78.04
113.07
145.24
173.02
194.86
207.87
208.67
195.65
170.88
140.32
111.70
91.53
82.81
84.65
93.54
104.99
114.78
119.37
116.16
103.71
82.02
52.29
16.45
-23.16
-63.77
-102.11
-134.66
-158.55
-172.66
-178.28
-178.21
-175.79
-172.91
-168.94
-161.57
-148.93
-131.87
-114.80
-104.08
-104.77
-118.08
-140.33
-164.45
-183.00
-191.10
-188.19
-177.78
-165.83
-158.50
-159.63
-169.04
-182.29
-192.16
-191.72
-177.97
-153.73
-126.49
-104.35
-91.27
-84.70
-77.33
-62.36
-37.89
-8.01
20.30
42.30
58.60
73.90
92.64
114.89
135.61
148.01
148.44
139.39
128.36
123.45
128.69
142.49
159.48
174.26
184.16
189.73
193.02
195.21
195.87
193.77
188.11
179.42
169.06
158.00
146.12
132.42
115.94
96.53
75.51
55.18
38.02
25.75
18.52
14.98
12.80
9.19
1.44
-12.06
-30.72
-50.94
-66.34
-69.80
-57.09
-28.81
9.02
46.97
75.94
90.56
89.89
78.07
61.03
43.24
26.29
9.50
-8.07
-25.85
-41.40
-51.63
-54.37
-49.92
-41.03
-31.95
-26.40
-26.19
-30.59
-36.91
-41.87
-42.90
-39.02
-30.82
-19.81
-8.50
-0.40
-0.01
-12.01
-39.19
-80.37
-129.41
-176.67
-212.08
-229.11
-227.63
-212.56
-191.33
-170.52
-153.42
-139.83
-127.63
-114.63
-99.77
-82.92
-63.93
-42.15
-16.69
12.80
45.20
77.61
106.13
127.14
138.57
140.37
134.14
122.50
108.13
93.52
80.55
70.59
64.50
62.64
64.93
70.61
78.29
85.83
90.58
89.93
82.05
66.53
44.72
19.63
-4.47
-22.72
-30.84
-26.61
-11.34
9.99
30.24
43.19
46.43
42.01
34.51
27.52
20.93
10.85
-7.71
-37.19
-75.28
-115.45
-149.90
-172.95
-183.35
-184.04
-179.52
-173.47
-167.14
-159.19
-146.41
-124.85
-91.39
-45.18
10.90
70.21
123.97
163.92
184.92
186.62
173.41
152.76
133.75
122.61
121.88
130.62
145.85
164.05
182.22
198.41
210.53
217.76
220.08
216.93
205.62
180.93
136.60
68.92
-19.34
-116.93
-207.19
-273.61
-306.36
-306.59
-285.76
-260.24
-243.57
-241.02
-248.36
-255.97
-254.51
-239.16
-210.44
-172.78
-131.79
-92.10
-56.54
-26.24
-0.22
25.07
54.81
93.30
140.85
191.67
235.70
262.90
267.92
252.03
221.71
184.48
145.56
108.15
73.96
46.44
31.09
32.77
52.17
84.03
118.51
144.50
154.14
145.18
120.82
87.37
51.35
17.88
-9.88
-30.37
-43.01
-48.04
-46.48
-40.60
-34.27
-32.87
-41.98
-65.55
-104.30
-154.17
-206.86
-252.12
-280.95
-288.78
-276.99
-252.29
-223.49
-197.72
-177.51
-160.63
-142.89
-121.76
-98.28
-76.18
-58.83
-46.16
-34.06
-16.88
8.69
40.57
71.26
90.86
91.79
72.45
38.47
0.11
-31.99
-50.96
-55.50
-48.87
-36.06
-20.97
-5.35
10.56
26.02
38.47
44.27
40.82
29.10
14.26
3.40
2.46
13.40
33.69
58.22
82.02
102.15
117.94
130.06
139.49
147.41
155.40
165.10
178.40
196.06
216.28
234.65
247.88
254.48
256.36
257.63
261.60
266.98
269.06
261.61
240.17
204.66
158.99
109.68
63.29
24.68
-4.10
-24.28
-40.31
-58.15
-82.24
-113.00
-146.02
-174.15
-191.85
-198.54
-198.56
-197.87
-199.88
-203.41
-204.63
-201.14
-194.51
-189.12
-188.42
-191.26
-191.84
-183.60
-164.07
-137.46
-112.62
-98.12
-97.60
-107.64
-119.68
-124.30
-115.91
-95.29
-68.79
-44.96
-30.14
-25.49
-26.95
-28.22
-24.62
-15.96
-6.18
-0.16
-0.06
-3.34
-4.24
2.35
17.26
36.30
52.70
61.26
60.86
54.06
44.54
34.39
23.33
10.41
-3.51
-14.96
-19.34
-13.85
0.43
19.01
36.70
50.45
60.37
68.35
75.45
80.35
80.03
72.19
57.58
40.42
26.53
20.25
22.26
29.65
37.88
43.38
45.03
44.02
42.37
41.51
41.52
41.30
39.51
35.48
29.68
23.63
19.29
17.88
19.25
21.73
22.91
20.92
15.48
8.11
1.19
-3.39
-5.29
-5.52
-5.49
-5.97
-6.70
-6.94
-6.31
-5.19
-4.50
-4.88
-6.18
-7.55
-7.97
-6.87
-4.37
-1.10
2.24
5.24
7.86
10.29
12.75
15.29
17.68
19.41
19.95
18.99
16.70
13.63
10.40
7.29
4.04
0.17
-4.58
-9.71
-14.19
-17.00
-17.99
-18.28
-19.74
-23.92
-30.95
-39.13
-45.65
-48.12
-45.77
-40.01
-33.73
-29.85
-30.07
-34.19
-40.72
-47.56
-52.76
-54.82
-52.48
-45.17
-33.56
-20.42
-10.64
-9.49
-19.62
-38.46
-57.84
-66.88
-56.83
-25.30
22.16
74.65
120.78
153.36
171.14
177.41
176.41
170.05
157.47
137.23
110.58
82.79
61.46
52.53
56.77
69.25
81.63
86.51
80.70
66.15
48.37
33.17
23.98
20.85
21.02
20.99
18.23
12.13
3.79
-4.90
-12.38
-18.07
-22.70
-27.50
-33.01
-38.19
-41.03
-40.80
-40.01
-44.50
-61.28
-94.17
-141.12
-194.09
-242.17
-275.99
-290.68
-286.26
-265.62
-232.25
-188.79
-137.77
-82.96
-30.09
14.14
44.59
59.78
62.89
60.44
59.53
65.07
78.39
97.92
120.44
142.99
163.48
180.57
192.56
197.09
191.28
174.06
147.66
116.98
87.86
63.63
44.14
26.31
6.55
-16.10
-39.32
-59.37
-74.37
-85.52
-96.45
-110.63
-129.19
-150.07
-168.62
-179.18
-177.75
-163.22
-137.03
-102.97
-65.32
-27.65
8.04
41.51
72.91
100.98
122.20
131.85
126.88
109.03
85.93
67.59
62.46
73.72
97.86
126.37
149.37
159.11
153.08
133.73
106.10
75.00
43.01
10.51
-22.81
-56.31
-87.78
-113.98
-132.45
-142.65
-146.04
-145.38
-143.24
-140.76
-137.37
-131.61
-121.50
-106.09
-86.49
-65.72
-47.71
-35.91
-31.92
-35.39
-44.16
-55.11
-65.22
-72.24
-74.92
-73.07
-67.63
-60.05
-51.86
-44.08
-36.90
-29.94
-22.79
-15.61
-9.28
-4.76
-2.29
-1.02
0.87
5.29
13.32
24.99
39.72
56.42
73.35
87.93
96.53
95.90
85.11
66.90
47.12
32.23
26.11
27.96
33.04
35.86
33.51
27.31
21.45
19.90
23.69
30.27
35.28
35.27
29.69
21.08
13.43
10.19
12.76
20.20
29.80
38.25
42.77
41.89
36.06
27.32
18.47
12.16
9.59
10.31
12.56
14.05
13.33
10.25
5.92
2.07
0.18
1.06
4.63
10.16
16.60
22.85
27.82
30.57
30.43
27.22
21.52
14.67
8.44
4.32
2.91
3.62
4.92
5.04
2.70
-2.55
-10.39
-20.25
-31.60
-43.85
-56.09
-66.78
-74.07
-76.57
-74.15
-68.06
-60.25
-52.45
-45.65
-40.35
-37.03
-36.41
-38.79
-43.09
-46.25
-43.92
-32.22
-9.85
20.84
54.52
84.89
106.85
118.02
118.65
110.85
97.33
80.54
62.33
43.89
26.00
9.43
-4.75
-15.28
-21.21
-22.63
-21.04
-18.96
-18.82
-21.74
-26.98
-32.62
-37.08
-40.47
-44.64
-51.85
-62.79
-75.37
-85.35
-88.25
-81.84
-67.62
-50.25
-35.56
-27.83
-27.88
-32.98
-38.57
-40.60
-37.30
-29.33
-18.61
-6.75
5.84
19.50
34.08
47.82
57.80
61.58
59.21
53.76
49.75
50.34
55.29
61.56
65.86
67.73
70.48
79.18
96.72
120.63
143.03
154.33
148.31
125.78
94.74
66.80
52.09
55.27
74.08
100.76
125.28
138.66
135.62
115.56
81.88
40.40
-2.39
-40.56
-69.17
-84.31
-83.52
-66.86
-38.13
-5.43
20.46
29.77
17.80
-12.29
-50.22
-82.48
-97.72
-90.59
-62.82
-20.89
27.35
74.92
116.34
146.94
162.44
159.98
139.89
106.91
69.37
35.99
11.88
-3.75
-16.70
-33.78
-58.14
-86.54
-110.59
-121.09
-113.25
-89.77
-60.13
-36.96
-30.68
-45.71
-79.55
-124.33
-169.83
-206.45
-227.29
-229.03
-212.18
-180.64
-140.80
-100.15
-65.50
-41.31
-28.94
-26.70
-30.60
-35.87
-38.28
-35.26
-26.71
-14.86
-3.47
3.71
4.50
-0.78
-9.63
-18.55
-24.42
-25.46
-21.33
-13.01
-2.14
9.33
19.44
26.58
30.03
30.40
29.66
30.65
36.02
47.17
63.30
81.39
96.72
104.08
99.51
81.51
51.88
15.62
-20.23
-48.54
-64.42
-66.86
-58.85
-45.92
-33.80
-26.21
-23.93
-25.33
-27.83
-29.52
-29.71
-28.71
-27.01
-24.88
-22.55
-20.74
-20.82
-23.55
-28.23
-32.57
-33.70
-29.96
-22.17
-13.38
-7.28
-5.91
-7.84
-8.96
-4.67
7.19
24.50
41.59
51.86
51.29
40.65
25.05
10.99
2.85
1.22
3.44
6.24
8.29
10.94
16.83
27.25
40.52
52.36
58.70
58.38
54.16
51.69
56.43
71.10
94.58
122.84
150.86
174.70
192.15
202.51
205.89
202.52
192.52
175.81
153.40
125.73
93.51
57.96
20.63
-16.88
-53.42
-88.14
-120.50
-149.87
-175.48
-196.02
-209.98
-216.12
-212.78
-199.70
-176.49
-144.05
-104.06
-58.86
-10.88
37.35
83.05
123.47
155.84
177.94
188.59
187.39
174.00
148.60
112.43
68.45
21.45
-23.02
-60.02
-87.18
-103.75
-111.72
-114.00
-112.75
-108.71
-101.79
-92.54
-83.12
-77.23
-78.71
-89.94
-110.38
-136.48
-162.80
-183.52
-194.02
-191.66
-176.30
-150.39
-118.28
-85.23
-56.19
-34.68
-21.89
-16.48
-14.97
-13.10
-7.52
2.69
15.66
27.72
35.26
36.81
33.82
30.11
29.76
35.26
46.20
59.47
70.77
76.47
75.03
67.47
56.69
46.29
39.32
37.38
40.29
46.53
53.91
60.46
65.01
67.39
68.11
67.74
66.26
62.87
56.28
45.59
31.14
14.86
-0.15
-10.84
-15.61
-14.98
-11.20
-6.99
-4.40
-4.09
-5.55
-7.88
-10.31
-12.36
-13.57
-13.40
-11.39
-7.70
-3.21
0.67
2.82
2.98
1.84
0.49
-0.37
-0.74
-1.04
-1.49
-1.68
-0.88
1.07
3.29
4.03
1.70
-3.85
-10.90
-16.43
-17.78
-13.98
-6.32
2.26
8.54
10.21
6.49
-1.83
-12.75
-23.53
-31.21
-33.37
-28.98
-19.01
-6.39
4.99
11.92
13.14
9.75
4.34
-0.42
-3.03
-3.56
-3.02
-2.44
-2.20
-2.07
-1.64
-0.90
-0.36
-0.91
-3.11
-6.82
-11.14
-14.82
-16.78
-16.70
-15.12
-13.24
-12.19
-12.44
-13.47
-14.06
-13.04
-9.97
-5.37
-0.33
4.12
7.56
10.19
12.50
14.82
17.36
20.42
24.58
30.44
37.95
45.84
51.73
53.05
48.43
38.55
25.99
14.08
5.47
1.24
0.89
3.16
6.82
10.98
14.99
18.10
19.49
18.55
15.46
11.20
7.28
4.94
4.53
5.37
6.12
5.58
3.32
-0.23
-4.06
-7.13
-8.90
-9.40
-9.09
-8.55
-8.19
-8.28
-8.97
-10.40
-12.69
-15.88
-19.73
-23.77
-27.39
-29.99
-31.22
-31.00
-29.63
-27.62
-25.62
-24.14
-23.40
-23.10
-22.53
-20.82
-17.35
-12.09
-5.64
0.93
6.48
10.14
11.53
10.86
8.84
6.51
4.89
4.70
5.97
8.14
10.21
11.29
10.99
9.48
7.39
5.25
3.31
1.42
-0.61
-2.73
-4.57
-5.57
-5.40
-4.16
-2.36
-0.69
0.36
0.70
0.67
0.76
1.37
2.62
4.35
6.18
7.70
8.58
8.64
7.88
6.52
4.93
3.49
2.50
2.00
1.92
2.06
2.31
2.67
3.14
3.66
3.93
3.55
2.23
-0.03
-2.77
-5.28
-6.88
-7.16
-6.19
-4.37
-2.29
-0.45
0.81
1.41
1.37
0.77
-0.25
-1.62
-3.24
-5.00
-6.68
-7.95
-8.49
-7.99
-6.40
-3.94
-1.07
1.74
4.17
6.10
7.55
8.49
8.80
8.31
7.03
5.26
3.49
2.13
1.25
0.56
-0.44
-2.07
-4.24
-6.38
-7.82
-8.10
-7.20
-5.50
-3.56
-1.81
-0.47
0.43
0.89
0.86
0.37
-0.48
-1.44
-2.16
-2.44
-2.24
-1.75
-1.17
-0.60
0.08
1.06
2.35
3.84
5.22
6.34
7.27
8.30
9.68
11.30
12.58
12.69
10.98
7.38
2.56
-2.34
-6.07
-7.74
-7.13
-4.60
-0.97
2.75
5.57
6.83
6.23
4.00
0.77
-2.71
-5.84
-8.38
-10.46
-12.37
-14.19
-15.57
-15.79
-14.05
-9.85
-3.42
4.22
11.43
16.52
18.34
16.68
12.41
7.05
2.26
-0.83
-1.94
-1.58
-0.59
0.35
0.97
1.50
2.20
3.11
3.99
4.42
4.17
3.41
2.64
2.30
2.59
3.16
3.38
2.71
1.08
-0.97
-2.54
-2.76
-1.34
1.30
4.12
5.93
5.87
3.75
0.16
-3.79
-6.91
-8.44
-8.24
-6.82
-4.87
-2.96
-1.24
0.48
2.37
4.27
5.61
5.67
4.04
0.98
-2.63
-5.69
-7.38
-7.54
-6.61
-5.26
-4.04
-3.13
-2.41
-1.69
-0.79
0.35
1.74
3.31
4.87
6.11
6.62
6.09
4.50
2.16
-0.30
-2.30
-3.44
-3.65
-3.16
-2.35
-1.56
-1.08
-1.15
-2.04
-3.98
-7.01
-10.81
-14.66
-17.53
-18.47
-17.06
-13.71
-9.57
-6.16
-4.58
-5.06
-6.79
-8.33
-8.36
-6.39
-3.00
0.50
2.83
3.37
2.38
0.78
-0.45
-0.75
-0.13
1.09
2.59
4.24
6.08
8.05
9.87
11.06
11.17
10.05
7.95
5.51
3.43
2.30
2.32
3.37
5.05
6.84
8.26
8.94
8.75
7.61
5.59
2.82
-0.48
-3.91
-7.00
-9.23
-10.27
-10.02
-8.75
-6.99
-5.32
-4.25
-3.94
-4.18
-4.50
-4.35
-3.39
-1.63
0.67
3.07
5.15
6.67
7.55
7.81
7.51
6.63
5.15
3.14
0.86
-1.27
-2.65
-2.86
-1.78
0.32
2.81
5.01
6.50
7.26
7.60
7.94
8.44
8.94
9.07
8.47
7.09
5.25
3.44
2.16
1.72
2.06
2.95
3.98
4.76
5.03
4.69
3.85
2.78
1.89
1.58
2.15
3.62
5.58
7.29
7.81
6.33
2.61
-2.81
-8.73
-13.58
-15.98
-15.33
-12.01
-7.18
-2.32
1.37
3.37
3.85
3.33
2.29
0.89
-1.09
-3.80
-7.09
-10.26
-12.34
-12.63
-11.12
-8.71
-6.72
-6.35
-7.93
-10.82
-13.75
-15.60
-15.92
-14.97
-13.20
-10.83
-7.84
-4.36
-0.85
2.09
4.24
6.17
8.94
13.21
18.37
22.52
23.40
19.79
12.51
4.24
-1.81
-3.27
0.38
7.78
16.49
23.80
27.58
26.89
22.42
16.29
11.35
9.89
12.44
17.45
22.19
24.42
23.74
21.97
21.99
26.13
35.01
47.37
60.88
73.38
83.80
92.52
100.88
110.06
120.38
130.85
139.42
143.78
141.94
132.47
114.30
86.43
48.29
0.63
-53.54
-108.68
-158.16
-196.50
-221.52
-235.15
-240.85
-242.82
-244.16
-245.64
-246.03
-243.44
-236.86
-226.52
-213.31
-199.42
-185.00
-169.07
-150.52
-128.67
-103.39
-75.03
-43.78
-9.50
27.57
66.15
103.33
135.11
157.71
169.09
169.74
162.43
150.74
137.60
124.55
112.11
100.81
91.88
86.81
86.31
89.47
93.85
96.65
96.16
92.43
86.74
80.56
74.45
67.83
59.76
49.81
38.50
27.05
16.57
7.56
-0.05
-6.51
-11.89
-15.94
-18.38
-19.18
-18.56
-16.99
-14.87
-12.49
-10.08
-8.12
-7.30
-8.40
-11.91
-17.70
-24.98
-32.33
-38.20
-41.31
-41.03
-37.46
-31.41
-24.06
-16.64
-10.19
-5.32
-2.17
-0.55
-0.04
-0.25
-0.86
-1.65
-2.42
-2.95
-3.04
-2.61
-1.70
-0.44
1.11
3.04
5.42
8.13
10.56
11.82
11.04
7.96
3.16
-2.12
-6.46
-8.94
-9.48
-8.72
-7.51
-6.49
-5.82
-5.28
-4.63
-3.82
-3.08
-2.76
-3.08
-4.01
-5.23
-6.25
-6.56
-5.84
-4.11
-1.72
0.75
2.77
4.03
4.58
4.65
4.45
4.05
3.33
2.21
0.83
-0.50
-1.40
-1.72
-1.59
-1.36
-1.36
-1.64
-2.08
-2.46
-2.73
-3.01
-3.46
-4.05
-4.55
-4.58
-3.93
-2.66
-1.06
0.50
1.82
2.87
3.73
4.42
4.83
4.82
4.30
3.40
2.41
1.74
1.70
2.38
3.58
4.86
5.71
5.76
4.88
3.22
1.11
-1.02
-2.78
-3.88
-4.18
-3.83
-3.10
-2.39
-1.99
-1.98
-2.27
-2.61
-2.86
-3.04
-3.33
-3.97
-5.03
-6.34
-7.46
-7.92
-7.38
-5.89
-3.80
-1.72
-0.26
0.11
-0.79
-2.84
-5.64
-8.58
-10.96
-12.10
-11.56
-9.31
-5.72
-1.54
2.43
5.55
7.57
8.56
8.72
8.27
7.37
6.22
5.11
4.41
4.41
5.17
6.38
7.47
7.80
6.93
4.76
1.70
-1.49
-3.90
-4.77
-3.79
-1.29
1.87
4.57
5.95
5.70
4.21
2.24
0.45
-0.96
-2.31
-4.10
-6.48
-8.85
-10.14
-9.26
-5.85
-0.64
4.71
8.38
9.18
7.15
3.53
0.07
-1.66
-0.97
2.05
6.68
11.92
16.68
19.77
20.00
16.57
9.46
-0.25
-10.58
-19.30
-24.74
-26.37
-24.81
-21.34
-17.22
-13.28
-9.83
-6.93
-4.61
-2.97
-2.03
-1.64
-1.49
-1.29
-0.86
-0.26
0.33
0.79
1.07
1.21
1.21
1.05
0.74
0.39
0.24
0.53
1.33
2.47
3.52
4.11
4.04
3.43
2.66
2.12
2.06
2.52
3.35
4.29
5.15
5.77
6.10
6.02
5.44
4.30
2.65
0.75
-1.00
-2.16
-2.50
-2.07
-1.23
-0.43
-0.00
-0.01
-0.27
-0.52
-0.58
-0.38
0.08
0.79
1.74
2.86
4.07
5.17
5.94
6.12
5.50
3.97
1.70
-0.86
-2.97
-3.95
-3.43
-1.67
0.52
2.14
2.41
1.25
-0.81
-2.90
-4.35
-4.85
-4.58
-3.83
-2.88
-1.86
-0.92
-0.29
-0.28
-1.15
-2.82
-4.90
-6.75
-7.79
-7.62
-6.18
-3.72
-0.72
2.27
4.66
5.97
5.95
4.76
2.82
0.77
-0.93
-2.08
-2.79
-3.26
-3.54
-3.49
-2.86
-1.57
0.22
2.05
3.41
3.97
3.70
2.86
1.85
1.03
0.54
0.29
0.09
-0.33
-1.06
-2.05
-3.14
-4.18
-5.14
-6.03
-6.85
-7.42
-7.43
-6.54
-4.64
-2.09
0.45
2.28
2.91
2.35
0.94
-0.84
-2.59
-3.99
-4.80
-4.75
-3.68
-1.68
0.82
3.07
4.40
4.52
3.74
2.84
2.61
3.50
5.43
7.88
10.21
11.93
12.69
12.29
10.63
7.74
3.97
0.07
-2.96
-4.24
-3.48
-1.19
1.57
3.67
4.53
4.25
3.41
2.54
1.78
0.85
-0.64
-2.74
-4.99
-6.64
-7.07
-6.18
-4.43
-2.54
-1.09
-0.19
0.49
1.37
2.74
4.53
6.40
7.90
8.67
8.56
7.63
6.16
4.56
3.30
2.70
2.84
3.46
4.08
4.23
3.65
2.42
0.80
-0.95
-2.69
-4.47
-6.35
-8.26
-9.97
-11.19
-11.73
-11.59
-10.90
-9.67
-7.81
-5.18
-1.83
1.83
4.95
6.58
6.15
3.76
0.26
-3.13
-5.31
-5.87
-5.12
-3.87
-2.90
-2.65
-2.97
-3.39
-3.49
-3.11
-2.48
-1.97
-1.84
-1.99
-2.00
-1.38
0.08
2.14
4.17
5.50
5.79
5.15
4.04
2.89
1.80
0.54
-1.19
-3.42
-5.75
-7.52
-8.14
-7.58
-6.27
-4.97
-4.30
-4.42
-5.01
-5.57
-5.74
-5.37
-4.53
-3.25
-1.53
0.73
3.54
6.69
9.76
12.22
13.63
13.72
12.46
10.09
7.00
3.72
0.83
-1.21
-2.14
-2.03
-1.13
0.15
1.44
2.45
3.06
3.22
2.99
2.53
2.11
1.97
2.20
2.70
3.11
3.01
2.16
0.64
-1.13
-2.52
-3.01
-2.44
-1.06
0.52
1.63
1.90
1.31
0.23
-0.83
-1.51
-1.71
-1.58
-1.37
-1.21
-1.06
-0.81
-0.45
-0.14
-0.18
-0.84
-2.13
-3.75
-5.19
-5.93
-5.76
-4.76
-3.32
-1.88
-0.74
0.01
0.47
0.82
1.26
1.86
2.61
3.44
4.17
4.65
4.78
4.50
3.94
3.27
2.75
2.57
2.90
3.76
5.10
6.69
8.17
9.15
9.26
8.36
6.57
4.21
1.65
-0.78
-2.90
-4.70
-6.15
-7.25
-7.88
-7.95
-7.46
-6.56
-5.50
-4.56
-3.95
-3.70
-3.74
-3.87
-3.85
-3.53
-2.93
-2.24
-1.72
-1.57
-1.74
-1.94
-1.84
-1.14
0.12
1.69
3.14
4.13
4.45
4.09
3.21
1.97
0.64
-0.54
-1.33
-1.59
-1.32
-0.74
-0.10
0.39
0.66
0.73
0.59
0.14
-0.76
-2.14
-3.78
-5.26
-6.03
-5.72
-4.26
-1.98
0.59
2.94
4.65
5.50
5.42
4.38
2.50
0.11
-2.26
-3.94
-4.41
-3.54
-1.63
0.60
2.41
3.33
3.32
2.78
2.16
1.82
1.84
2.15
2.64
3.27
4.04
4.80
5.29
5.10
4.04
2.24
0.26
-1.22
-1.66
-1.03
0.23
1.41
1.92
1.53
0.45
-0.82
-1.80
-2.18
-1.94
-1.29
-0.54
0.05
0.42
0.61
0.74
0.82
0.72
0.23
-0.73
-2.00
-3.14
-3.66
-3.28
-2.05
-0.40
1.11
2.05
2.28
1.97
1.40
0.77
0.06
-0.88
-2.23
-3.96
-5.76
-7.07
-7.38
-6.50
-4.71
-2.69
-1.12
-0.32
-0.10
0.12
0.90
2.45
4.47
6.33
7.43
7.46
6.47
4.76
2.68
0.55
-1.39
-2.84
-3.48
-3.06
-1.61
0.53
2.76
4.40
5.01
4.55
3.35
1.94
0.78
0.05
-0.36
-0.71
-1.22
-1.98
-2.94
-3.98
-5.01
-5.94
-6.67
-7.05
-7.01
-6.60
-6.04
-5.70
-5.84
-6.50
-7.47
-8.34
-8.77
-8.58
-7.83
-6.67
-5.30
-3.86
-2.38
-0.82
0.88
2.74
4.71
6.65
8.35
9.63
10.44
10.84
10.95
10.86
10.62
10.19
9.67
9.25
9.20
9.63
10.35
10.83
10.43
8.79
6.06
2.91
0.20
-1.49
-2.14
-2.31
-2.68
-3.73
-5.42
-7.26
-8.74
-9.56
-9.84
-9.84
-9.77
-9.53
-8.85
-7.48
-5.43
-3.06
-0.96
0.30
0.45
-0.41
-1.87
-3.43
-4.72
-5.61
-6.15
-6.37
-6.19
-5.37
-3.73
-1.30
1.48
3.91
5.26
5.19
3.93
2.13
0.61
-0.15
-0.11
0.38
0.94
1.33
1.67
2.22
3.14
4.31
5.31
5.68
5.15
3.89
2.35
1.10
0.54
0.67
1.30
2.07
2.76
3.30
3.72
3.98
3.81
2.84
0.81
-2.18
-5.49
-8.19
-9.42
-8.86
-6.88
-4.37
-2.13
-0.67
0.04
0.17
-0.24
-1.46
-3.77
-7.08
-10.75
-13.72
-15.15
-14.91
-13.65
-12.44
-12.11
-12.80
-14.05
-15.27
-16.28
-17.40
-19.22
-21.89
-24.98
-27.52
-28.62
-28.01
-26.26
-24.45
-23.58
-24.22
-26.49
-30.29
-35.37
-41.14
-46.39
-49.17
-47.24
-38.79
-23.22
-1.50
23.98
49.91
72.68
88.93
96.11
93.33
81.84
65.04
47.46
33.01
23.49
18.08
14.46
10.73
6.83
4.68
6.79
14.49
26.72
40.28
51.17
56.40
54.98
47.88
37.45
26.53
17.80
13.19
13.23
16.69
20.69
21.67
16.97
6.23
-8.18
-22.10
-31.46
-34.03
-30.16
-22.32
-13.73
-7.10
-3.93
-4.57
-8.53
-14.75
-21.81
-28.17
-32.48
-34.01
-32.84
-29.80
-26.03
-22.44
-19.46
-17.18
-15.64
-15.19
-16.34
-19.60
-25.36
-33.50
-43.05
-51.87
-56.91
-55.09
-44.75
-26.85
-5.52
12.69
21.09
15.47
-4.06
-32.91
-63.45
-87.53
-98.32
-92.00
-68.26
-29.99
17.61
68.20
115.78
155.97
184.96
201.53
206.59
202.48
191.97
177.49
160.83
143.36
126.02
109.23
93.02
76.83
59.94
42.12
24.06
7.34
-6.11
-14.93
-19.04
-19.56
-18.63
-18.46
-20.56
-25.02
-30.43
-34.56
-35.41
-32.24
-25.85
-18.43
-12.63
-10.57
-12.78
-17.93
-23.73
-27.89
-29.35
-28.89
-28.92
-32.48
-42.95
-62.48
-90.88
-125.07
-159.10
-185.18
-195.49
-184.61
-151.84
-102.64
-47.47
1.17
32.81
42.60
32.70
10.99
-12.93
-29.94
-35.78
-31.43
-20.98
-8.71
2.93
13.55
23.55
32.87
40.15
43.35
41.26
34.52
25.60
17.65
13.38
13.72
17.66
22.78
26.24
26.11
22.02
15.30
8.32
3.47
2.12
4.20
8.37
12.62
15.27
15.39
12.89
7.92
0.77
-8.03
-16.78
-22.39
-21.24
-10.69
8.66
32.77
55.16
69.41
71.86
62.93
46.43
26.90
8.85
-6.07
-18.45
-29.59
-40.20
-49.85
-57.29
-61.50
-62.24
-60.15
-56.91
-54.14
-52.93
-53.18
-54.01
-53.77
-50.88
-44.33
-33.65
-19.00
-0.48
21.63
46.20
70.34
89.38
98.19
92.78
74.22
47.67
20.69
0.02
-11.06
-13.51
-10.96
-7.27
-4.53
-2.61
-0.65
1.84
4.24
5.32
4.18
1.03
-2.86
-5.89
-6.67
-5.05
-1.96
1.12
2.82
2.48
0.43
-2.32
-4.52
-5.22
-4.30
-2.32
-0.26
1.02
1.07
0.08
-1.39
-2.60
-3.03
-2.58
-1.56
-0.44
0.32
0.52
0.24
-0.26
-0.65
-0.70
-0.37
0.22
0.89
1.47
1.89
2.15
2.34
2.53
2.79
3.13
3.54
4.00
4.49
5.00
5.54
6.10
6.70
7.34
8.01
8.70
9.42
10.18
10.98
11.81
12.66
13.53
14.46
15.44
16.45
17.54
18.68
19.85
20.95
21.87
22.46
22.50
21.77
20.04
17.19
13.11
7.80
1.39
-5.83
-13.43
-20.84
-27.45
-32.64
-35.77
-36.39
-34.27
-29.46
-22.24
-13.16
-3.03
7.51
17.37
25.95
32.73
37.47
40.16
40.93
40.19
38.31
35.67
32.72
29.88
27.38
25.24
23.40
21.67
19.80
17.56
14.58
10.81
6.44
1.47
-4.08
-10.04
-16.27
-22.73
-28.33
-33.62
-38.52
-42.57
-45.45
-47.05
-47.11
-45.65
-42.90
-39.19
-34.94
-31.06
-26.67
-21.69
-16.45
-11.25
-6.77
-3.85
-3.18
-5.20
-9.58
-15.50
-20.99
-26.32
-31.21
-35.74
-40.11
-44.45
-48.77
-52.89
-56.80
-60.86
-65.44
-69.71
-72.03
-70.40
-63.48
-51.77
-37.84
-25.24
-16.71
-12.77
-11.26
-9.36
-5.58
-0.67
3.02
3.55
1.06
-2.12
-3.20
-0.12
6.40
13.53
18.06
18.04
13.67
6.85
0.01
-5.31
-8.23
-8.75
-7.05
-3.00
3.73
13.07
24.44
35.72
43.92
46.52
42.74
34.45
25.33
18.97
16.83
17.26
16.35
10.32
-2.18
-19.32
-36.96
-50.85
-58.73
-60.78
-58.90
-55.01
-49.68
-41.74
-29.57
-12.00
10.84
37.07
64.44
91.04
115.23
136.51
153.50
163.25
162.47
149.18
124.65
93.82
63.34
38.67
21.81
11.13
3.47
-2.31
-4.15
1.84
18.27
43.14
69.97
90.23
97.24
89.19
69.64
45.14
21.87
4.05
-8.13
-16.80
-24.33
-32.03
-39.65
-45.81
-49.31
-49.53
-46.74
-42.41
-37.83
-33.61
-29.37
-24.68
-20.15
-18.24
-22.12
-33.68
-51.54
-70.47
-83.39
-84.96
-74.27
-55.48
-35.48
-20.29
-12.47
-10.71
-11.67
-12.54
-12.58
-12.87
-14.73
-18.41
-22.70
-25.90
-26.96
-25.88
-23.87
-22.71
-23.64
-26.96
-31.96
-37.21
-41.38
-43.75
-44.45
-44.42
-44.74
-46.08
-48.37
-50.57
-51.25
-48.92
-42.57
-31.70
-16.76
1.75
23.10
46.50
71.01
95.60
119.01
139.74
156.26
167.02
170.92
167.53
157.08
140.51
119.18
94.70
68.25
41.85
16.89
-5.68
-25.23
-41.54
-54.58
-64.60
-71.96
-77.19
-80.89
-83.69
-86.10
-88.44
-90.90
-93.61
-96.80
-100.35
-104.26
-108.42
-112.90
-117.64
-122.46
-127.00
-130.75
-133.13
-133.51
-131.37
-126.28
-118.02
-106.67
-92.04
-74.11
-53.12
-29.60
-4.46
20.95
45.09
66.44
83.89
97.05
106.21
112.20
116.04
118.57
120.09
120.45
119.21
116.17
111.67
106.64
102.33
99.86
99.70
101.40
103.74
105.43
105.52
103.92
101.41
99.21
98.70
101.12
107.44
117.91
131.34
144.44
152.07
148.56
130.08
96.73
53.12
6.96
-33.82
-63.98
-82.25
-90.70
-92.68
-90.86
-86.43
-79.73
-71.36
-62.79
-55.99
-52.33
-51.77
-52.87
-53.53
-51.86
-47.12
-39.78
-31.01
-22.16
-14.36
-8.20
-4.08
-2.08
-1.87
-2.57
-2.85
-1.29
3.03
10.15
19.28
29.11
38.45
46.60
53.53
59.59
65.21
70.71
76.29
82.19
88.72
96.21
104.72
113.93
123.16
131.64
138.88
144.86
149.85
154.08
157.60
160.21
161.67
161.96
161.08
159.17
156.07
151.59
145.75
138.86
131.29
123.02
113.62
102.74
90.89
79.76
71.65
67.86
67.52
67.49
63.65
53.05
35.45
13.29
-9.65
-30.01
-46.16
-58.26
-67.50
-75.05
-81.34
-86.07
-88.41
-87.63
-83.49
-76.48
-68.01
-59.76
-53.23
-49.26
-47.96
-49.11
-52.66
-59.00
-68.46
-80.80
-94.90
-108.98
-121.31
-130.96
-138.07
-143.59
-148.90
-154.99
-162.13
-169.82
-177.04
-182.79
-186.52
-188.20
-188.23
-187.30
-185.97
-184.71
-183.57
-182.30
-180.44
-177.44
-172.84
-166.42
-158.36
-149.04
-138.92
-128.34
-117.35
-105.98
-94.45
-83.10
-72.28
-62.07
-52.27
-42.89
-34.52
-28.20
-24.96
-24.62
-25.36
-24.27
-18.67
-7.53
7.71
23.61
35.89
40.40
34.13
15.76
-13.49
-49.35
-84.82
-111.89
-124.20
-119.51
-100.59
-73.66
-45.44
-20.83
-1.57
12.90
23.70
31.61
36.97
40.11
42.01
43.96
46.86
50.96
55.53
59.25
60.63
58.43
52.05
41.98
29.96
18.38
9.55
4.48
2.59
2.16
1.28
-0.91
-3.90
-6.25
-6.51
-4.10
0.33
5.37
9.77
13.13
16.07
19.91
25.86
34.58
45.88
58.89
72.31
84.75
94.88
101.59
104.24
102.89
98.42
92.35
86.16
80.64
75.80
71.07
66.09
61.36
58.22
58.43
63.36
73.06
85.86
98.62
108.01
111.67
109.35
102.76
94.28
85.26
75.15
61.65
41.98
14.79
-19.46
-58.85
-100.94
-143.06
-182.07
-214.01
-234.72
-242.17
-238.25
-228.81
-221.06
-219.73
-224.16
-228.73
-226.12
-211.07
-183.08
-145.29
-102.73
-60.16
-21.56
9.76
31.31
42.42
45.81
46.65
51.17
62.53
78.59
92.22
95.41
84.49
63.16
41.40
28.72
29.62
40.57
52.24
55.09
44.89
24.93
3.44
-12.27
-23.02
-36.68
-63.40
-108.18
-165.88
-222.22
-259.70
-266.19
-241.54
-201.14
-167.49
-160.51
-188.61
-245.82
-316.86
-385.10
-439.98
-462.95
-445.51
-387.76
-298.29
-190.03
-74.78
38.79
144.41
237.12
312.89
368.12
402.40
418.03
419.92
413.91
404.39
392.76
380.90
367.32
350.04
329.36
306.33
280.94
251.10
212.85
162.82
101.22
33.20
-32.84
-85.16
-114.12
-117.36
-99.77
-69.83
-35.24
-0.89
30.82
58.21
79.58
92.72
96.40
91.30
80.17
67.21
56.12
49.03
46.14
46.13
46.44
44.78
40.16
33.23
25.73
19.46
15.57
14.24
14.76
15.80
15.99
14.63
11.89
8.57
5.54
3.42
2.44
2.41
2.83
3.14
2.90
2.03
0.60
-1.19
-3.02
-4.57
-5.52
-5.72
-5.24
-4.41
-3.77
-3.82
-4.90
-6.85
-9.07
-10.73
-11.12
-9.95
-7.68
-5.36
-3.96
-4.30
-6.27
-8.82
-10.51
-10.02
-6.45
0.24
9.20
19.57
30.36
40.46
48.71
54.14
56.43
56.90
58.13
62.69
71.54
82.69
91.19
92.37
83.05
63.78
38.47
12.54
-9.66
-26.14
-37.56
-45.42
-50.67
-53.58
-53.73
-51.01
-46.21
-40.90
-36.70
-34.85
-35.38
-37.09
-38.70
-38.98
-37.46
-34.62
-31.51
-29.29
-28.71
-29.73
-31.49
-33.15
-33.86
-33.43
-32.29
-31.40
-31.88
-34.71
-40.31
-48.32
-58.23
-69.11
-79.92
-89.57
-97.05
-100.98
-99.85
-92.06
-76.40
-52.65
-21.89
13.24
48.66
79.78
102.44
113.88
113.66
103.42
86.29
66.21
46.71
30.02
17.56
9.97
7.55
10.52
18.77
31.54
47.24
63.39
77.27
87.19
92.66
93.81
90.37
80.86
63.15
36.47
2.85
-31.63
-58.15
-68.98
-61.47
-39.71
-12.77
9.92
23.14
26.90
25.07
22.21
20.38
18.89
16.89
15.98
20.85
36.62
63.44
94.04
116.37
119.21
98.36
59.88
17.78
-12.61
-22.61
-15.61
-4.73
-5.58
-28.55
-76.41
-143.25
-217.39
-285.67
-329.30
-335.33
-304.02
-248.03
-183.48
-121.78
-67.91
-23.30
12.48
39.30
55.86
61.70
59.25
53.46
49.96
52.65
61.91
76.35
91.34
101.92
105.83
105.40
106.36
114.25
131.00
149.85
163.57
164.85
149.85
120.30
82.48
44.46
12.30
-11.59
-27.90
-37.90
-43.18
-44.79
-43.39
-40.08
-36.16
-32.93
-31.52
-32.33
-34.24
-36.06
-36.71
-35.67
-33.22
-30.22
-27.70
-26.49
-26.76
-27.89
-29.09
-29.67
-29.34
-28.41
-27.74
-28.24
-30.82
-35.68
-42.36
-49.98
-57.31
-62.94
-65.19
-63.24
-55.82
-42.60
-24.17
-2.11
21.09
42.46
59.13
69.26
71.69
67.16
57.31
44.29
30.29
17.05
5.81
-2.81
-8.36
-10.64
-9.35
-5.05
0.66
5.74
8.17
6.77
1.63
-5.56
-12.40
-16.45
-16.41
-12.73
-6.54
0.79
7.92
12.88
13.23
6.71
-6.94
-24.42
-38.91
-41.77
-26.99
5.52
48.93
91.95
123.54
137.02
131.99
112.86
86.12
56.84
27.95
1.13
-21.76
-37.87
-44.07
-38.45
-22.05
0.77
22.81
36.61
37.38
24.45
1.04
-27.75
-56.89
-83.33
-104.50
-118.41
-122.50
-114.04
-91.85
-58.36
-20.11
14.24
36.69
43.18
33.78
11.76
-18.72
-54.51
-93.93
-135.51
-176.03
-210.83
-230.94
-229.19
-204.02
-160.80
-109.22
-59.34
-19.49
8.97
27.65
40.74
54.39
75.96
110.01
158.09
216.51
276.04
324.21
347.91
338.03
293.15
221.29
138.75
66.06
21.69
16.48
50.74
113.93
186.28
244.63
270.65
258.25
213.97
150.45
80.26
13.49
-42.68
-86.91
-118.76
-139.71
-153.67
-166.27
-182.91
-206.25
-232.24
-254.36
-265.61
-260.45
-237.80
-201.75
-160.39
-123.22
-97.96
-88.13
-93.22
-109.22
-130.04
-150.12
-165.91
-176.08
-180.22
-177.17
-164.18
-138.36
-98.03
-43.83
20.39
88.37
152.85
206.93
245.28
264.77
264.84
247.79
218.80
184.59
151.42
123.07
99.97
80.03
60.85
41.58
23.75
10.12
2.62
1.13
3.57
7.32
10.80
14.24
18.92
25.53
32.93
37.99
36.88
26.77
7.60
-17.54
-43.44
-64.62
-77.34
-80.52
-75.39
-64.29
-49.42
-32.28
-13.99
3.88
18.85
28.43
31.60
29.92
27.07
26.65
29.80
34.15
35.02
28.22
12.80
-8.11
-28.75
-43.76
-50.53
-49.88
-44.65
-37.49
-29.49
-20.50
-10.16
1.09
11.60
19.37
22.93
21.99
17.55
11.29
4.73
-1.19
-6.20
-10.34
-13.71
-16.27
-17.93
-18.68
-18.60
-17.88
-16.61
-14.85
-12.71
-10.39
-8.21
-6.47
-5.29
-4.58
-4.02
-3.21
-2.06
-0.95
-0.80
-2.63
-6.98
-13.33
-20.18
-25.47
-27.54
-26.03
-21.92
-16.82
-11.94
-7.57
-2.94
2.74
9.68
17.16
23.90
29.04
32.70
35.55
38.05
39.73
39.45
36.38
30.94
24.74
19.76
16.91
15.31
12.90
8.03
0.73
-6.98
-12.29
-13.31
-10.02
-4.24
1.44
5.11
6.01
4.18
0.01
-6.04
-13.63
-22.06
-30.43
-37.80
-43.34
-46.49
-46.86
-44.26
-38.60
-30.13
-19.55
-8.11
2.70
11.44
17.11
19.47
19.01
16.75
13.80
11.00
8.64
6.68
5.05
3.98
4.12
6.13
10.22
15.83
21.83
27.05
30.84
33.21
34.58
35.30
35.28
34.20
31.70
27.73
22.55
16.54
10.02
3.35
-3.02
-8.49
-12.35
-14.08
-13.61
-11.33
-7.87
-3.94
-0.20
2.56
3.40
1.50
-3.49
-11.02
-19.80
-28.25
-35.15
-39.97
-42.80
-43.96
-43.54
-41.36
-37.21
-31.31
-24.48
-17.80
-12.22
-8.19
-5.82
-5.12
-6.13
-8.81
-12.81
-17.56
-22.45
-27.06
-31.17
-34.39
-35.75
-33.75
-27.21
-16.02
-1.62
13.50
27.21
38.89
49.62
61.18
74.59
88.69
100.74
107.61
107.52
100.60
88.51
73.21
56.41
39.99
26.01
17.13
15.71
22.55
35.84
51.14
62.87
67.20
64.06
56.03
45.89
33.30
13.83
-19.26
-71.32
-142.60
-226.26
-307.72
-368.89
-394.79
-380.86
-335.16
-273.16
-210.08
-155.47
-113.99
-82.57
-58.02
-37.81
-19.28
1.31
28.71
67.06
116.32
172.65
229.40
278.55
313.55
330.69
329.27
310.78
277.82
233.40
181.27
126.17
73.05
26.45
-10.63
-37.34
-54.70
-64.81
-69.69
-70.39
-66.99
-59.36
-47.91
-34.03
-20.10
-8.59
-1.27
1.19
-0.68
-5.67
-12.45
-19.75
-26.27
-30.70
-31.75
-28.62
-21.27
-10.70
1.29
12.71
22.04
28.79
33.35
36.47
38.74
40.33
41.05
40.73
39.43
37.24
34.12
29.63
23.14
14.34
3.75
-7.23
-16.91
-23.91
-27.82
-29.22
-29.16
-28.46
-27.19
-24.79
-20.64
-14.79
-8.26
-2.79
-0.04
-0.83
-4.84
-10.75
-16.86
-21.74
-24.71
-25.81
-25.59
-24.66
-23.51
-22.47
-21.87
-21.86
-22.35
-22.84
-22.57
-20.87
-17.62
-13.49
-9.76
-7.86
-8.60
-11.69
-15.85
-19.40
-21.02
-20.33
-17.71
-13.74
-8.71
-2.44
5.30
14.18
23.15
30.73
35.76
37.89
37.58
35.60
32.39
27.85
21.55
13.34
3.69
-6.27
-15.36
-22.80
-28.48
-32.71
-35.72
-37.48
-37.68
-36.13
-33.01
-28.82
-24.27
-20.07
-16.77
-14.59
-13.51
-13.16
-12.88
-11.78
-9.06
-4.45
1.62
8.08
13.71
17.70
19.92
20.84
20.91
20.23
18.40
14.99
10.14
4.97
1.19
0.28
2.76
7.87
14.18
20.38
25.79
30.24
33.72
35.81
35.72
32.76
26.87
19.01
10.85
4.23
0.58
0.67
4.50
11.13
18.77
24.82
26.70
22.70
12.81
-1.17
-16.32
-29.66
-39.20
-44.26
-45.28
-43.11
-38.74
-33.14
-27.41
-22.46
-18.55
-15.03
-10.61
-4.21
4.17
13.18
20.52
24.02
22.74
17.38
9.97
3.00
-1.57
-2.85
-0.98
3.15
8.30
13.21
16.92
18.88
18.94
17.11
13.31
7.48
-0.06
-8.27
-15.44
-19.71
-20.06
-16.81
-11.61
-6.68
-3.73
-3.16
-4.22
-5.68
-6.72
-7.37
-8.11
-9.24
-10.41
-10.70
-9.32
-6.28
-2.66
-0.04
0.30
-1.79
-5.31
-8.69
-10.51
-10.12
-7.75
-4.20
-0.45
2.72
4.86
5.84
5.67
4.53
2.86
1.28
0.52
0.94
2.29
3.74
4.23
3.05
0.23
-3.55
-7.38
-10.58
-12.84
-13.99
-13.69
-11.31
-6.32
1.07
9.57
17.20
22.13
23.60
22.06
18.60
14.28
9.83
5.67
2.25
0.08
-0.58
0.10
1.39
2.64
3.63
4.82
6.75
9.37
11.77
12.68
11.28
7.81
3.42
-0.47
-3.05
-4.28
-4.58
-4.26
-3.41
-2.05
-0.61
0.03
-0.95
-3.78
-7.61
-10.93
-12.32
-11.39
-8.76
-5.75
-3.52
-2.39
-2.01
-1.60
-0.57
1.23
3.40
5.34
6.54
6.91
6.75
6.56
6.70
7.11
7.23
6.41
4.31
1.20
-2.07
-4.46
-5.30
-4.52
-2.65
-0.45
1.53
3.05
4.14
4.71
4.56
3.49
1.65
-0.35
-1.49
-0.81
2.01
6.33
10.73
13.66
14.20
12.49
9.46
6.25
3.62
1.93
1.44
2.77
6.79
13.97
23.65
33.96
42.32
46.77
46.78
43.43
38.61
33.86
29.79
26.25
22.95
19.79
16.67
13.14
8.19
0.69
-9.87
-22.95
-36.93
-49.76
-59.62
-65.34
-66.38
-62.84
-55.36
-45.25
-34.45
-25.28
-19.81
-19.03
-22.35
-27.67
-32.19
-33.38
-29.95
-22.10
-11.38
-0.10
9.53
16.13
19.53
20.61
20.81
21.20
22.07
22.68
21.71
17.99
11.16
2.07
-7.39
-14.90
-18.62
-17.83
-13.08
-5.92
1.63
7.61
10.77
10.84
8.67
5.64
3.06
1.61
1.17
1.06
0.41
-1.44
-4.71
-9.20
-14.36
-19.33
-23.04
-24.47
-22.95
-18.58
-12.24
-5.33
0.77
5.16
7.65
8.50
8.16
7.01
5.38
3.61
1.97
0.64
-0.25
-0.71
-0.79
-0.61
-0.34
-0.21
-0.47
-1.22
-2.20
-2.75
-2.17
-0.23
2.60
5.26
6.61
6.14
4.14
1.54
-0.81
-2.68
-4.45
-6.57
-8.80
-10.15
-9.46
-6.38
-1.86
2.02
3.31
1.15
-3.72
-9.40
-13.88
-15.88
-15.25
-12.73
-9.53
-6.88
-5.65
-6.01
-7.30
-8.25
-7.61
-5.03
-1.25
2.28
4.41
4.95
4.65
4.53
4.96
5.55
5.49
4.38
2.70
1.56
1.80
3.39
5.58
7.49
9.04
10.89
13.72
17.41
20.74
21.89
19.44
13.27
4.56
-4.68
-12.61
-18.08
-20.48
-19.47
-14.86
-7.12
2.18
10.49
15.34
15.56
12.00
7.04
3.06
1.17
0.72
0.09
-2.03
-5.60
-9.34
-11.59
-11.38
-9.00
-5.58
-2.36
-0.10
0.93
0.76
-0.54
-2.72
-5.15
-6.93
-7.18
-5.49
-2.31
1.11
3.28
3.13
0.46
-4.14
-9.54
-14.46
-17.60
-17.84
-14.40
-7.38
1.98
11.47
18.79
22.74
23.85
23.91
24.66
26.37
27.48
25.64
19.48
9.87
-0.27
-7.48
-9.75
-7.39
-2.59
2.11
5.07
6.10
5.89
5.16
4.15
2.79
1.22
-0.01
-0.15
1.12
3.41
5.71
7.00
6.80
5.27
2.87
-0.07
-3.54
-7.55
-11.70
-14.93
-15.89
-13.70
-8.63
-2.23
3.41
6.60
6.84
4.88
2.14
-0.17
-1.50
-2.06
-2.47
-3.27
-4.66
-6.39
-8.05
-9.21
-9.65
-9.33
-8.44
-7.34
-6.48
-6.19
-6.58
-7.54
-8.78
-9.89
-10.54
-10.45
-9.51
-7.74
-5.32
-2.64
-0.23
1.28
1.42
-0.01
-2.73
-5.94
-8.38
-8.80
-6.48
-1.59
4.80
11.18
16.18
19.18
20.38
20.51
20.23
19.77
18.82
16.84
13.61
9.53
5.61
2.89
1.75
1.63
1.33
-0.21
-3.12
-6.45
-8.68
-8.68
-6.54
-3.59
-1.63
-1.76
-3.70
-5.99
-6.90
-5.51
-2.18
1.72
4.62
5.70
5.20
4.20
4.07
5.56
8.52
11.93
14.42
14.86
13.13
10.02
6.71
4.21
2.65
1.58
0.51
-0.68
-1.63
-1.96
-1.78
-1.63
-2.12
-3.30
-4.51
-4.78
-3.63
-1.61
-0.11
-0.48
-3.10
-7.03
-10.45
-11.67
-10.04
-6.62
-3.37
-2.32
-4.26
-8.33
-12.38
-14.30
-12.86
-8.34
-2.65
1.77
3.03
0.99
-2.74
-5.84
-6.57
-4.27
0.91
8.20
16.58
25.20
33.53
41.11
46.72
48.43
44.87
36.67
25.99
14.56
1.51
-17.15
-47.14
-93.53
-157.80
-236.22
-314.08
-371.21
-390.24
-365.85
-306.60
-228.28
-145.26
-66.15
5.18
66.68
116.13
151.93
173.63
183.25
186.43
190.97
203.35
225.66
249.52
264.96
262.55
237.25
190.96
131.72
69.79
13.55
-32.76
-68.39
-94.37
-111.60
-119.81
-118.14
-105.91
-83.71
-53.68
-20.02
12.16
38.69
56.89
66.37
69.21
69.35
69.48
71.94
77.14
83.58
89.11
91.90
91.32
88.02
83.39
78.36
72.96
65.95
55.53
40.56
21.28
-0.25
-20.74
-36.72
-45.99
-48.38
-46.00
-42.00
-38.93
-37.60
-37.15
-36.07
-33.63
-30.54
-28.39
-28.66
-31.56
-35.90
-39.91
-42.35
-43.17
-43.10
-42.83
-42.30
-40.91
-38.25
-34.72
-31.56
-30.04
-30.53
-31.98
-32.24
-29.15
-21.69
-10.59
2.03
13.64
22.36
27.51
29.43
28.96
26.89
23.65
19.48
14.80
10.18
6.32
3.67
2.19
1.53
1.27
1.24
1.46
2.00
2.67
3.07
2.98
2.60
2.72
4.19
7.22
10.99
13.83
14.09
11.23
6.23
1.24
-1.51
-0.80
3.19
9.17
15.42
20.24
22.12
19.67
11.91
-0.93
-16.75
-31.46
-40.09
-39.01
-27.94
-10.63
6.35
16.41
15.88
5.42
-10.47
-25.75
-35.50
-37.70
-33.48
-25.80
-17.81
-11.45
-7.27
-4.85
-3.62
-3.30
-3.75
-4.75
-5.79
-6.29
-5.85
-4.67
-3.36
-2.57
-2.67
-3.63
-5.30
-7.46
-9.77
-11.45
-11.41
-8.68
-3.20
3.90
10.65
15.23
16.95
16.40
14.98
13.73
12.67
10.77
6.83
0.37
-7.87
-16.24
-22.86
-25.99
-24.45
-17.84
-7.30
4.15
12.35
13.62
6.70
-6.21
-20.13
-29.44
-30.28
-22.23
-8.46
5.92
16.06
19.38
16.18
9.13
2.00
-1.80
-0.62
4.77
11.41
15.64
15.09
9.81
2.26
-4.44
-8.27
-9.33
-9.17
-9.14
-9.14
-7.68
-3.26
4.04
12.11
17.76
18.66
14.82
8.68
3.72
2.68
6.31
13.30
21.07
26.90
28.91
26.62
20.82
13.24
5.69
-0.64
-5.58
-9.88
-14.45
-19.55
-24.53
-28.27
-29.96
-29.60
-27.81
-25.34
-22.66
-19.88
-16.97
-14.06
-11.49
-9.62
-8.50
-7.74
-6.67
-4.59
-1.05
3.96
9.99
16.07
21.03
23.80
23.96
21.98
19.09
16.73
15.85
16.55
18.01
19.02
18.53
16.06
11.76
6.30
0.55
-4.57
-8.18
-9.58
-8.41
-4.81
0.41
5.84
9.74
10.66
7.90
2.05
-5.07
-10.95
-13.35
-11.26
-5.33
2.37
9.33
13.68
14.84
13.42
10.54
6.94
2.70
-2.39
-8.31
-14.26
-18.93
-21.26
-20.91
-18.47
-15.03
-11.45
-7.95
-4.40
-0.71
2.72
5.09
5.86
5.18
4.02
3.63
4.76
7.20
9.99
11.98
12.58
12.01
11.01
10.26
9.94
9.65
8.83
7.16
4.84
2.34
0.07
-2.02
-4.37
-7.24
-10.44
-13.10
-14.20
-13.30
-10.93
-8.43
-7.22
-7.87
-9.83
-11.85
-12.78
-12.21
-10.67
-9.14
-8.52
-9.24
-11.24
-14.20
-17.74
-21.35
-24.31
-25.76
-25.06
-22.13
-17.64
-12.63
-8.07
-4.36
-1.36
1.31
3.82
5.92
7.06
6.86
5.42
3.47
1.94
1.49
2.20
3.50
4.60
4.87
4.10
2.44
0.24
-2.19
-4.53
-6.37
-7.14
-6.28
-3.51
0.94
6.32
11.56
15.64
17.89
18.10
16.57
13.99
11.20
9.05
8.01
8.09
8.87
9.75
10.29
10.42
10.40
10.50
10.66
10.34
8.88
5.95
1.93
-2.17
-5.20
-6.45
-6.04
-4.84
-3.93
-4.03
-5.15
-6.73
-8.08
-8.75
-8.64
-7.85
-6.44
-4.47
-2.06
0.40
2.39
3.51
3.78
3.64
3.59
3.83
4.06
3.73
2.53
0.70
-1.07
-2.07
-2.03
-1.26
-0.33
0.27
0.35
0.02
-0.56
-1.26
-1.89
-2.19
-1.89
-0.93
0.37
1.36
1.47
0.66
-0.47
-1.01
-0.27
1.81
4.65
7.41
9.41
10.37
10.36
9.59
8.31
6.76
5.25
4.10
3.50
3.39
3.46
3.34
2.83
1.99
1.10
0.46
0.25
0.42
0.77
1.11
1.30
1.33
1.14
0.61
-0.50
-2.32
-4.71
-7.16
-8.99
-9.67
-9.25
-8.41
-8.02
-8.59
-9.82
-10.70
-10.18
-7.91
-4.51
-1.29
0.64
0.95
0.22
-0.60
-0.82
-0.28
0.77
2.11
3.75
5.74
7.85
9.35
9.55
8.11
5.51
2.64
0.21
-1.60
-3.20
-4.96
-6.75
-7.77
-7.19
-4.79
-1.23
2.38
5.40
8.12
11.63
16.71
22.95
28.37
30.32
26.91
18.10
5.81
-7.07
-18.03
-25.81
-30.43
-32.37
-31.77
-28.29
-21.61
-12.07
-1.21
8.71
15.65
18.61
18.12
15.68
12.90
10.73
9.19
7.71
5.71
3.14
0.46
-1.51
-2.13
-1.18
1.06
3.99
6.97
9.38
10.72
10.55
8.61
4.92
-0.00
-5.29
-9.89
-12.80
-13.34
-11.42
-7.73
-3.66
-0.86
-0.52
-2.72
-6.35
-9.52
-10.53
-8.72
-4.63
0.36
5.08
9.11
12.73
16.27
19.47
21.45
21.38
19.21
15.87
12.75
10.81
9.91
8.91
6.50
2.10
-3.59
-8.95
-12.29
-12.70
-10.58
-7.29
-4.38
-2.86
-2.88
-3.80
-4.69
-4.95
-4.53
-3.93
-3.61
-3.63
-3.59
-3.11
-2.27
-1.97
-3.49
-7.67
-14.10
-21.02
-25.91
-26.69
-22.74
-15.17
-6.20
1.84
7.54
10.67
11.96
12.46
13.01
14.08
15.76
17.79
19.64
20.57
19.70
16.36
10.54
3.03
-4.70
-11.10
-15.16
-16.78
-16.57
-15.49
-14.22
-12.89
-11.20
-8.86
-5.92
-2.89
-0.46
0.86
0.97
0.30
-0.39
-0.41
0.69
2.86
5.64
8.38
10.49
11.65
11.75
10.92
9.22
6.81
3.94
1.10
-1.01
-1.76
-0.93
1.01
3.02
3.87
2.84
0.09
-3.41
-6.35
-7.75
-7.40
-5.89
-4.20
-3.15
-3.01
-3.56
-4.27
-4.63
-4.31
-3.22
-1.43
0.87
3.51
6.29
8.97
11.23
12.67
12.82
11.40
8.58
5.16
2.41
1.55
3.01
6.08
9.16
10.55
9.36
