1624787586.00
64.000000
-0.00
-0.00
-0.00
-0.00
-0.00
-0.00
-0.00
-0.00
-0.00
-0.00
0.00
0.01
0.01
-0.00
-0.03
-0.05
-0.05
0.00
0.13
0.36
0.66
1.01
1.37
1.72
2.06
2.40
2.79
3.25
3.81
4.45
5.11
5.75
6.35
6.91
7.51
8.22
9.11
10.28
11.61
12.98
14.24
15.30
16.21
17.18
18.45
20.24
22.77
25.83
29.12
32.26
35.07
37.62
40.31
43.66
48.07
53.95
60.91
68.31
75.44
81.89
87.76
93.71
100.63
109.27
120.19
132.79
145.96
158.55
169.80
179.84
189.66
201.07
213.23
228.47
247.12
268.63
291.11
311.23
324.77
327.81
317.91
295.07
261.85
221.62
177.51
131.52
84.42
36.57
-11.10
-57.08
-99.40
-136.86
-169.77
-199.98
-229.66
-260.66
-293.97
-328.99
-364.16
-396.56
-422.61
-438.34
-441.00
-429.85
-406.96
-376.99
-345.07
-315.61
-290.19
-268.01
-246.48
-223.40
-198.35
-172.76
-149.69
-131.52
-119.31
-111.59
-105.79
-99.11
-89.97
-78.86
-66.78
-55.29
-44.40
-33.53
-21.02
-5.99
10.71
26.93
39.00
44.45
42.14
34.01
23.27
13.97
8.97
8.71
12.32
17.37
22.51
26.94
31.69
37.75
45.20
52.98
58.24
58.74
52.94
42.10
28.72
16.47
8.15
4.42
4.71
6.79
9.42
11.80
14.92
19.73
26.28
33.45
38.37
38.79
33.15
22.70
9.85
-1.81
-9.55
-12.59
-11.27
-7.54
-2.54
2.73
8.78
16.00
24.10
32.01
37.20
37.88
32.77
23.09
10.99
-0.27
-8.06
-11.49
-10.70
-7.45
-2.91
1.80
7.06
13.20
20.08
26.84
31.20
31.44
26.28
16.78
4.93
-6.12
-13.77
-17.14
-16.30
-12.97
-8.30
-3.47
1.84
7.86
14.41
20.65
24.42
24.17
18.76
9.30
-2.36
-13.26
-21.04
-24.89
-24.79
-22.21
-18.00
-13.15
-7.38
-0.66
6.58
13.32
17.40
17.40
12.28
3.16
-8.19
-18.86
-26.27
-29.25
-27.36
-21.99
-14.36
-6.27
1.64
8.84
15.00
19.84
22.20
21.43
16.65
8.48
-2.08
-12.75
-21.12
-25.60
-25.16
-20.66
-13.27
-5.07
2.80
9.49
14.74
18.67
20.59
20.15
16.37
9.56
0.27
-9.50
-17.37
-21.54
-20.71
-15.58
-7.31
1.79
10.34
17.28
22.34
25.83
27.34
26.81
23.40
17.32
8.91
-0.15
-7.63
-11.83
-11.34
-6.73
1.01
9.64
17.81
24.46
29.30
32.58
33.86
33.01
29.13
22.43
13.31
3.57
-4.42
-8.86
-8.39
-3.78
3.70
11.58
18.39
23.17
25.91
27.23
26.96
25.10
20.71
13.81
4.57
-5.32
-13.58
-18.29
-17.97
-13.22
-5.23
3.50
11.41
17.33
21.09
23.15
23.32
21.58
17.06
9.84
0.24
-9.93
-18.22
-22.65
-21.78
-16.39
-7.96
0.82
8.32
13.48
16.44
17.96
18.08
16.87
13.34
7.35
-1.11
-10.45
-18.37
-22.86
-22.33
-17.32
-9.11
-0.30
7.43
12.91
16.15
17.84
17.99
16.69
12.95
6.64
-2.19
-11.90
-20.03
-24.40
-23.39
-17.61
-8.56
0.90
8.88
14.12
16.73
17.64
17.10
15.39
11.60
5.52
-2.93
-12.25
-20.06
-24.23
-23.09
-17.21
-8.03
1.65
10.00
15.74
18.98
20.51
20.48
19.08
15.32
9.05
0.30
-9.27
-17.16
-21.25
-20.02
-14.30
-5.72
2.77
9.43
13.27
14.73
14.97
14.33
13.01
9.88
4.56
-3.19
-11.93
-19.32
-23.27
-22.16
-16.64
-8.12
0.64
7.97
12.81
15.43
16.76
16.96
16.13
13.14
7.68
-0.37
-9.43
-17.09
-21.25
-20.34
-15.05
-6.90
1.33
7.92
11.83
13.41
13.76
13.26
12.18
9.51
4.88
-2.08
-10.11
-17.10
-21.07
-20.41
-15.56
-7.74
0.50
7.56
12.32
14.92
16.14
16.08
14.84
11.40
5.54
-2.79
-12.02
-19.75
-23.86
-22.74
-17.06
-8.32
0.63
7.99
12.60
14.73
15.40
14.95
13.67
10.56
5.36
-2.12
-10.46
-17.41
-20.98
-19.64
-14.11
-5.82
2.49
9.18
13.27
15.12
15.73
15.33
14.07
10.83
5.26
-2.78
-11.76
-19.26
-23.12
-21.77
-15.94
-7.24
1.42
8.28
12.30
13.95
14.39
14.06
13.24
10.89
6.63
0.13
-7.31
-13.61
-16.94
-15.86
-11.05
-3.83
3.30
8.96
12.32
13.77
14.29
14.03
13.11
10.43
5.74
-1.18
-8.98
-15.61
-19.30
-18.66
-14.31
-7.45
-0.45
5.34
8.95
10.62
11.17
10.77
9.73
7.22
3.19
-2.57
-8.94
-14.24
-17.07
-16.25
-12.38
-6.41
-0.44
4.45
7.44
8.78
9.24
8.92
8.09
5.91
2.32
-2.92
-8.71
-13.48
-15.89
-14.83
-10.94
-5.17
0.47
4.97
7.58
8.62
8.87
8.50
7.81
6.05
3.17
-1.11
-5.91
-9.92
-12.06
-11.38
-8.47
-4.04
0.18
3.46
5.20
5.71
5.76
5.48
5.23
4.28
2.61
-0.19
-3.44
-6.16
-7.52
-6.71
-4.28
-0.79
2.24
4.29
4.89
4.42
3.66
2.81
2.31
1.55
0.52
-1.25
-3.32
-4.98
-5.65
-4.65
-2.47
0.47
2.84
4.29
4.41
3.61
2.63
1.63
1.00
0.10
-1.07
-2.95
-5.04
-6.58
-7.01
-5.67
-3.16
0.05
2.59
4.09
4.15
3.19
2.01
0.82
0.11
-0.65
-1.43
-2.72
-4.11
-5.00
-4.95
-3.43
-1.07
1.66
3.49
4.17
3.42
1.76
0.06
-1.39
-2.04
-2.33
-2.18
-2.05
-1.65
-0.65
1.04
3.59
6.07
7.92
7.94
6.13
2.61
-1.63
-5.29
-7.73
-8.24
-7.34
-5.28
-3.01
-0.68
1.69
4.08
6.69
8.77
9.91
9.09
6.44
2.17
-2.64
-6.65
-9.23
-9.74
-8.81
-6.70
-4.34
-1.81
0.93
3.81
6.97
9.55
11.06
10.43
7.77
3.26
-1.97
-6.51
-9.55
-10.22
-8.92
-5.84
-2.02
2.20
6.49
10.45
13.97
16.06
16.25
13.64
8.63
1.74
-5.54
-11.52
-15.27
-15.93
-14.07
-10.10
-5.23
0.07
5.35
10.12
14.18
16.42
16.38
13.18
7.36
-0.36
-8.31
-14.67
-18.42
-18.77
-16.38
-11.78
-6.32
-0.54
5.06
10.05
14.24
16.64
16.81
13.91
8.39
0.87
-7.06
-13.62
-17.70
-18.31
-15.89
-10.84
-4.47
2.51
9.38
15.41
20.20
22.64
22.23
18.21
11.19
1.99
-7.58
-15.47
-20.43
-21.36
-18.76
-13.15
-6.02
1.78
9.37
15.96
21.04
23.43
22.63
17.89
9.96
-0.23
-10.70
-19.32
-24.75
-25.81
-22.94
-16.61
-8.36
0.85
9.90
17.74
23.64
26.29
25.23
19.85
11.08
0.09
-10.91
-19.63
-24.68
-25.00
-21.26
-14.23
-5.68
3.35
11.81
18.85
24.01
26.15
24.92
19.69
11.26
0.63
-10.17
-18.97
-24.39
-25.30
-22.21
-15.75
-7.58
1.29
9.77
16.95
22.28
24.57
23.39
18.09
9.47
-1.42
-12.43
-21.21
-26.25
-26.42
-22.40
-15.11
-6.55
2.07
9.66
15.62
19.81
21.46
20.41
15.98
8.70
-0.75
-10.55
-18.55
-23.25
-23.42
-19.64
-12.71
-4.55
3.69
10.99
16.78
20.93
22.61
21.51
16.81
9.01
-1.18
-11.74
-20.28
-25.11
-24.95
-20.45
-12.70
-3.90
4.58
11.63
16.85
20.33
21.56
20.40
16.11
9.04
-0.30
-10.12
-18.24
-23.02
-23.15
-19.19
-12.05
-3.78
4.35
11.31
16.65
20.40
21.88
20.84
16.42
8.97
-0.93
-11.32
-19.78
-24.48
-24.06
-19.22
-11.18
-2.37
5.70
11.93
16.10
18.60
19.14
17.71
13.49
6.65
-2.46
-12.11
-20.04
-24.49
-24.08
-19.48
-11.83
-3.46
4.26
10.30
14.52
17.29
18.27
17.31
13.47
6.84
-2.27
-12.07
-20.15
-24.56
-23.84
-18.65
-10.29
-1.34
6.56
12.28
15.76
17.64
17.90
16.67
13.06
7.04
-1.32
-10.49
-18.21
-22.59
-22.06
-17.20
-9.20
-0.58
7.07
12.62
16.03
17.90
18.15
16.83
12.98
6.57
-2.25
-11.74
-19.42
-23.26
-21.79
-15.86
-7.14
1.50
8.31
12.32
13.96
14.39
13.97
12.92
10.15
5.27
-2.01
-10.33
-17.43
-21.31
-20.39
-15.28
-7.33
0.81
7.57
11.97
14.37
15.69
16.06
15.51
12.82
7.61
-0.27
-9.25
-16.86
-20.95
-19.94
-14.59
-6.49
1.52
7.74
11.25
12.51
12.71
12.18
11.13
8.45
3.75
-3.21
-11.07
-17.70
-21.24
-20.32
-15.67
-8.64
-1.73
3.69
6.83
8.09
8.47
8.17
7.41
5.21
1.38
-4.27
-10.53
-15.62
-18.05
-16.73
-12.41
-6.25
-0.47
3.89
6.15
6.81
6.90
6.71
6.59
5.69
3.78
0.41
-3.64
-7.13
-8.99
-8.28
-5.57
-1.62
1.89
4.28
5.06
4.65
3.91
3.06
2.49
1.48
-0.02
-2.45
-5.23
-7.48
-8.50
-7.55
-5.24
-2.11
0.38
1.80
1.77
0.78
-0.30
-1.23
-1.55
-1.88
-2.29
-3.34
-4.63
-5.51
-5.49
-3.96
-1.53
1.31
3.22
3.88
3.01
1.19
-0.62
-2.03
-2.42
-2.31
-1.70
-1.26
-0.79
0.04
1.39
3.59
5.83
7.59
7.69
6.10
2.84
-1.17
-4.75
-7.37
-8.36
-8.19
-6.90
-5.21
-3.06
-0.43
2.54
5.86
8.56
10.14
9.53
6.92
2.52
-2.57
-6.96
-9.87
-10.40
-8.92
-5.55
-1.30
3.46
8.29
12.69
16.49
18.70
18.88
16.21
11.12
4.13
-3.31
-9.57
-13.73
-14.90
-13.58
-10.04
-5.46
-0.29
4.95
9.72
13.79
16.12
16.29
13.50
8.23
1.03
-6.64
-13.13
-17.45
-18.56
-16.77
-12.26
-6.17
0.91
8.22
14.89
20.26
23.01
22.53
18.09
10.43
0.53
-9.63
-17.95
-23.10
-23.91
-20.80
-14.25
-5.80
3.51
12.54
20.19
25.82
28.25
27.13
21.96
13.62
3.14
-7.49
-16.20
-21.69
-22.85
-20.20
-14.31
-6.78
1.42
9.29
15.94
20.90
23.02
21.89
16.87
8.71
-1.65
-12.19
-20.71
-25.76
-26.18
-22.51
-15.51
-6.99
1.90
10.06
16.70
21.50
23.55
22.59
17.98
10.37
0.54
-9.60
-17.91
-22.92
-23.44
-20.03
-13.46
-5.61
2.39
9.50
15.13
19.11
20.66
19.51
14.94
7.46
-2.23
-12.25
-20.37
-25.03
-24.97
-20.79
-13.41
-4.86
3.60
10.88
16.46
20.30
21.72
20.53
15.98
8.50
-1.29
-11.53
-19.94
-24.84
-24.91
-20.75
-13.35
-4.88
3.31
10.11
15.12
18.45
19.56
18.31
13.88
6.64
-2.88
-12.76
-20.66
-24.84
-24.00
-18.88
-10.63
-1.56
6.93
13.79
18.74
22.01
23.13
21.99
17.73
10.64
1.16
-8.93
-17.37
-22.47
-22.85
-19.09
-12.17
-4.24
3.37
9.61
14.13
17.14
18.17
17.11
13.12
6.45
-2.53
-12.10
-19.99
-24.47
-24.12
-19.52
-11.70
-2.94
5.34
12.02
16.77
19.81
20.70
19.36
14.95
7.75
-1.83
-11.95
-20.25
-24.90
-24.47
-19.60
-11.52
-2.67
5.44
11.68
15.87
18.40
18.98
17.53
13.15
5.99
-3.55
-13.59
-21.67
-25.87
-24.82
-19.32
-10.77
-1.76
6.12
11.82
15.37
17.40
17.86
16.83
13.39
7.49
-0.80
-9.95
-17.77
-22.37
-22.17
-17.64
-9.84
-1.14
6.94
13.21
17.41
19.90
20.37
18.78
14.22
6.86
-2.91
-13.19
-21.43
-25.60
-24.29
-18.31
-9.23
0.13
8.05
13.41
16.34
17.67
17.52
16.08
12.41
6.39
-1.98
-11.21
-19.08
-23.65
-23.38
-18.78
-10.96
-2.36
5.48
11.40
15.30
17.67
18.34
17.34
13.72
7.49
-1.17
-10.58
-18.35
-22.53
-21.65
-16.42
-8.23
0.28
7.52
12.44
15.14
16.39
16.22
14.75
11.01
4.91
-3.52
-12.72
-20.40
-24.60
-23.77
-18.51
-10.08
-1.05
6.95
12.77
16.38
18.38
18.66
17.24
13.14
6.34
-2.93
-12.85
-20.92
-25.08
-23.89
-18.15
-9.41
-0.42
7.12
12.14
14.82
16.00
15.81
14.41
10.83
4.93
-3.31
-12.35
-19.89
-23.95
-22.99
-17.62
-9.18
-0.29
7.44
12.88
16.12
17.84
18.05
16.79
13.07
6.81
-1.87
-11.25
-18.90
-22.83
-21.59
-15.97
-7.47
1.19
8.39
13.12
15.57
16.64
16.46
15.14
11.68
5.87
-2.33
-11.41
-19.07
-23.34
-22.65
-17.55
-9.30
-0.44
7.40
13.07
16.50
18.25
18.23
16.47
12.08
5.11
-4.15
-13.93
-21.83
-25.91
-24.80
-19.27
-10.68
-1.60
6.42
12.36
16.17
18.44
18.98
17.79
13.93
7.45
-1.41
-10.94
-18.81
-23.14
-22.51
-17.58
-9.60
-1.00
6.70
12.45
16.14
18.26
18.59
17.11
12.91
6.13
-2.90
-12.45
-20.21
-24.44
-23.85
-19.14
-11.48
-3.13
4.59
10.72
15.04
17.85
18.72
17.52
13.36
6.48
-2.68
-12.33
-20.20
-24.59
-24.15
-19.52
-11.72
-2.93
5.49
12.47
17.57
20.88
21.84
20.31
15.54
7.98
-1.71
-11.65
-19.57
-23.91
-23.47
-18.97
-11.36
-2.68
5.87
13.30
19.09
23.13
24.60
23.15
18.01
9.69
-0.97
-11.88
-20.62
-25.54
-25.46
-21.10
-13.51
-4.83
3.67
10.96
16.51
20.38
21.91
20.98
16.89
10.13
1.37
-7.65
-14.90
-19.07
-19.07
-15.49
-8.97
-1.13
7.11
14.84
21.32
26.20
28.47
27.78
23.48
16.30
7.10
-2.23
-9.70
-14.11
-14.54
-11.65
-6.09
0.59
7.54
14.02
19.37
23.38
25.14
24.42
20.61
14.43
6.74
-0.81
-6.54
-9.88
-10.60
-9.92
-8.64
-7.93
-7.79
-7.81
-7.50
-6.18
-4.28
-2.02
-0.50
0.12
-0.42
-1.61
-2.70
-3.60
-4.04
-4.81
-6.05
-8.28
-10.98
-13.26
-14.37
-13.40
-10.70
-6.59
-2.42
1.25
3.75
5.14
5.85
5.71
4.89
2.67
-0.91
-6.03
-11.75
-16.70
-19.67
-19.43
-16.23
-10.58
-4.21
1.87
6.57
9.57
11.05
10.70
8.63
4.19
-2.31
-10.57
-19.01
-25.54
-28.49
-26.59
-20.55
-11.65
-2.47
5.40
10.75
13.59
14.63
14.04
12.13
8.15
2.12
-5.95
-14.59
-21.63
-25.14
-23.59
-17.54
-8.24
1.67
10.45
16.82
20.64
22.48
22.27
20.15
15.25
7.69
-2.22
-12.64
-21.08
-25.51
-24.46
-18.64
-9.45
0.47
9.38
16.04
20.18
22.28
22.17
19.97
14.92
7.29
-2.52
-12.76
-21.11
-25.78
-25.35
-20.42
-12.07
-2.56
6.61
14.23
19.77
23.31
24.31
22.71
17.85
10.19
0.37
-9.78
-18.05
-22.87
-22.93
-18.72
-10.97
-1.55
8.29
17.29
24.47
29.36
30.98
29.11
23.28
14.39
3.49
-7.42
-16.22
-21.61
-22.50
-19.43
-12.98
-4.75
4.26
12.95
20.31
25.75
28.20
27.39
22.89
15.64
6.65
-2.21
-9.11
-13.17
-13.80
-11.88
-8.08
-3.77
0.61
4.72
8.33
11.54
13.70
14.66
13.73
11.25
7.47
3.30
-0.24
-2.85
-4.13
-4.76
-4.83
-4.94
-4.82
-4.15
-2.81
-0.54
1.87
3.99
4.77
4.22
2.36
-0.06
-2.07
-3.51
-4.15
-4.88
-6.03
-8.26
-11.17
-13.97
-15.90
-15.95
-14.27
-10.95
-7.15
-3.34
-0.24
2.01
3.53
3.83
2.82
-0.38
-5.64
-12.85
-20.56
-26.76
-29.71
-27.96
-21.99
-12.87
-3.11
5.63
11.96
15.63
17.14
16.53
14.13
9.31
2.31
-6.67
-16.00
-23.41
-27.00
-25.28
-18.90
-9.19
1.15
10.34
17.05
21.11
23.06
22.85
20.65
15.63
7.94
-2.12
-12.70
-21.30
-25.81
-24.71
-18.69
-9.22
0.91
9.91
16.48
20.47
22.45
22.33
20.20
15.24
7.60
-2.36
-12.80
-21.31
-25.96
-25.38
-20.30
-12.05
-3.13
4.92
11.00
14.97
17.29
17.76
16.40
12.37
5.82
-2.96
-12.28
-19.90
-24.04
-23.31
-18.29
-10.02
-0.72
8.18
15.52
20.83
24.17
24.95
23.00
17.59
9.18
-1.53
-12.55
-21.46
-26.53
-26.43
-21.80
-13.70
-4.34
4.87
12.76
18.70
22.67
23.98
22.45
17.41
9.39
-0.85
-11.31
-19.68
-24.38
-24.21
-19.82
-12.15
-3.17
5.89
13.97
20.37
24.85
26.51
25.07
19.89
11.67
1.35
-9.02
-17.24
-21.93
-22.06
-18.30
-11.40
-3.06
5.71
13.97
20.88
25.97
28.16
27.08
22.14
14.22
4.42
-5.23
-12.64
-16.75
-16.90
-14.05
-9.07
-3.50
2.00
7.02
11.26
14.76
16.78
17.06
14.87
10.64
4.83
-1.21
-6.04
-9.01
-9.59
-8.57
-6.42
-4.17
-1.92
0.45
2.99
5.97
8.64
10.55
10.61
8.89
5.53
1.56
-1.75
-3.94
-4.59
-4.55
-4.23
-4.52
-5.29
-6.04
-6.28
-5.26
-3.34
-0.75
1.39
2.78
3.06
2.57
1.99
1.28
0.62
-0.86
-3.33
-7.20
-11.70
-15.62
-17.81
-17.17
-14.03
-8.98
-3.72
0.81
3.77
5.20
5.64
5.06
3.69
0.78
-3.66
-9.70
-16.14
-21.13
-23.14
-20.89
-15.05
-6.85
1.22
7.69
11.59
13.18
13.40
12.53
10.81
7.29
1.77
-5.81
-13.97
-20.41
-23.20
-20.94
-14.50
-5.51
3.19
9.87
13.61
14.83
14.72
13.68
11.99
8.62
3.24
-4.34
-12.73
-19.69
-23.29
-22.01
-16.49
-8.02
0.88
8.63
14.21
17.62
19.45
19.53
17.80
13.26
5.96
-3.71
-13.83
-21.81
-25.70
-24.15
-18.10
-9.10
0.16
8.10
13.74
17.11
18.91
19.03
17.51
13.41
6.83
-1.98
-11.34
-19.01
-23.29
-22.79
-18.04
-9.99
-0.70
8.50
16.48
22.62
26.84
28.39
27.06
22.17
14.31
4.34
-5.80
-13.85
-18.38
-18.30
-14.29
-7.19
1.12
9.47
16.81
22.36
25.95
26.84
25.03
20.04
12.58
3.34
-6.07
-13.84
-18.89
-20.30
-18.66
-14.57
-9.47
-4.04
1.19
5.84
9.86
12.40
13.12
11.18
6.97
1.05
-5.15
-10.06
-12.96
-13.35
-12.08
-9.65
-7.09
-4.49
-1.73
1.23
4.58
7.50
9.56
9.78
8.36
5.57
2.40
-0.10
-1.75
-2.33
-2.67
-2.91
-3.48
-3.85
-3.40
-1.90
0.83
3.78
6.24
7.03
6.21
3.99
1.38
-0.48
-1.38
-1.16
-0.84
-0.86
-1.97
-3.78
-5.53
-6.48
-5.74
-3.61
-0.34
2.83
5.45
6.93
7.43
7.43
6.86
5.95
3.96
0.89
-3.58
-8.59
-12.81
-15.03
-14.10
-10.46
-4.94
0.45
4.58
6.63
6.87
6.21
4.87
3.12
0.03
-4.69
-11.35
-18.69
-24.66
-27.37
-25.25
-18.90
-9.72
-0.47
7.07
11.73
13.77
14.19
13.36
11.59
7.91
2.10
-5.94
-14.67
-21.68
-24.90
-22.81
-16.24
-6.81
2.51
9.91
14.34
16.16
16.54
15.90
14.52
11.35
6.06
-1.57
-10.08
-17.16
-20.73
-19.24
-13.35
-4.51
4.54
12.11
17.12
19.69
20.65
20.08
18.08
13.70
6.86
-2.30
-12.07
-20.06
-24.32
-23.42
-18.11
-9.78
-1.00
6.64
12.11
15.39
17.15
17.32
15.99
12.25
6.13
-2.18
-11.12
-18.46
-22.43
-21.61
-16.57
-8.39
0.65
9.08
15.80
20.45
23.32
24.00
22.42
17.75
10.22
0.29
-10.24
-18.99
-24.11
-24.16
-19.76
-12.06
-3.44
4.51
10.64
14.56
16.62
16.52
14.32
9.30
1.76
-7.87
-17.89
-26.13
-30.97
-31.11
-27.11
-19.87
-11.35
-2.72
5.09
11.55
16.53
19.12
18.85
14.86
7.69
-1.75
-11.36
-18.82
-22.74
-22.17
-17.92
-10.89
-2.83
5.37
12.91
19.17
23.88
26.05
25.33
21.05
13.96
4.93
-4.19
-11.47
-15.83
-16.38
-13.74
-8.39
-1.70
5.67
12.91
19.24
24.15
26.44
25.72
21.36
14.14
5.03
-4.13
-11.41
-15.75
-16.38
-14.04
-9.37
-3.85
1.89
7.28
11.85
15.51
17.40
17.24
14.31
9.11
2.22
-4.92
-10.74
-14.41
-15.23
-13.83
-10.63
-6.75
-2.52
1.82
5.95
9.81
12.44
13.40
11.78
7.98
2.52
-3.20
-7.68
-10.23
-10.36
-8.89
-6.31
-3.68
-1.13
1.40
3.93
6.73
9.05
10.56
10.25
8.28
4.81
0.84
-2.44
-4.55
-5.03
-4.61
-3.62
-2.89
-2.31
-1.55
-0.31
1.87
4.37
6.78
7.92
7.65
5.87
3.33
1.09
-0.52
-1.08
-1.38
-1.67
-2.72
-4.26
-5.68
-6.40
-5.61
-3.64
-0.73
1.90
3.85
4.60
4.38
3.81
2.91
2.00
0.39
-1.96
-5.40
-9.25
-12.42
-13.99
-13.03
-10.07
-5.75
-1.76
1.18
2.48
2.48
1.97
1.05
-0.08
-2.33
-5.91
-11.13
-16.98
-21.72
-23.82
-21.92
-16.51
-8.67
-0.75
5.79
9.92
11.82
12.35
11.72
10.20
6.85
1.53
-5.86
-13.83
-20.13
-22.84
-20.61
-14.31
-5.61
2.65
8.80
11.99
12.76
12.43
11.46
10.12
7.31
2.60
-4.32
-12.14
-18.64
-21.90
-20.42
-14.84
-6.53
1.95
9.04
13.77
16.29
17.41
17.15
15.57
11.67
5.36
-3.21
-12.39
-19.87
-23.81
-22.84
-17.66
-9.48
-0.64
7.43
13.74
18.09
20.84
21.64
20.39
16.22
9.37
0.28
-9.31
-17.15
-21.60
-21.36
-17.04
-9.57
-1.00
7.40
14.57
19.98
23.60
24.78
23.39
18.77
11.47
2.20
-7.22
-14.73
-19.01
-18.98
-15.27
-8.62
-0.72
7.43
14.91
20.96
25.32
27.08
26.00
21.53
14.39
5.43
-3.56
-10.69
-14.92
-15.50
-13.21
-8.73
-3.48
1.93
7.07
11.58
15.45
17.84
18.43
16.44
12.28
6.49
0.40
-4.49
-7.53
-8.22
-7.34
-5.35
-3.29
-1.30
0.70
2.74
5.10
7.08
8.37
8.00
6.12
2.87
-0.78
-3.71
-5.57
-6.04
-6.00
-5.82
-6.26
-7.05
-7.60
-7.40
-5.78
-3.27
-0.25
2.06
3.35
3.33
2.42
1.39
0.32
-0.52
-1.89
-3.91
-7.03
-10.63
-13.68
-15.26
-14.38
-11.44
-6.92
-2.43
1.31
3.56
4.50
4.73
4.28
3.40
1.29
-2.11
-7.07
-12.57
-17.02
-19.03
-17.39
-12.69
-5.93
0.66
5.85
8.79
9.81
9.85
9.13
7.93
5.25
0.83
-5.63
-12.90
-18.95
-21.94
-20.39
-14.85
-6.60
1.79
8.74
13.19
15.33
16.00
15.32
13.41
9.27
2.77
-5.99
-15.30
-22.66
-26.02
-23.91
-17.19
-7.47
2.38
10.59
16.06
18.96
20.17
19.81
18.08
14.03
7.57
-1.19
-10.64
-18.42
-22.56
-21.57
-16.09
-7.43
1.87
10.15
16.23
19.94
21.75
21.52
19.30
14.27
6.61
-3.31
-13.65
-21.99
-26.42
-25.54
-20.07
-11.32
-1.81
6.88
13.65
18.24
21.01
21.63
20.02
15.31
7.77
-2.11
-12.44
-20.82
-25.49
-25.15
-20.52
-12.75
-4.15
3.84
10.12
14.31
16.70
16.95
15.10
10.46
3.34
-5.90
-15.68
-23.95
-29.14
-29.87
-26.50
-19.66
-11.09
-1.87
7.01
14.76
20.92
24.29
24.27
20.08
12.53
2.85
-6.67
-13.73
-17.12
-16.12
-11.68
-4.61
3.55
12.08
20.24
27.22
32.42
34.56
33.18
27.74
19.24
8.90
-1.17
-8.95
-13.48
-14.19
-12.12
-8.10
-3.60
0.86
5.01
8.68
11.94
13.99
14.44
12.41
8.22
2.34
-3.85
-8.75
-11.57
-11.68
-9.86
-6.65
-3.27
-0.04
3.01
5.89
8.88
11.29
12.74
12.17
9.66
5.43
0.60
-3.41
-5.96
-6.51
-5.90
-4.63
-3.73
-3.24
-2.86
-2.21
-0.68
1.28
3.37
4.43
4.29
2.73
0.39
-1.75
-3.35
-3.97
-4.37
-4.78
-5.93
-7.54
-8.93
-9.47
-8.34
-5.99
-2.79
-0.12
1.57
1.86
1.20
0.40
-0.41
-1.04
-2.45
-4.98
-9.12
-14.06
-18.28
-20.33
-18.86
-14.30
-7.57
-0.86
4.49
7.57
8.65
8.65
7.86
6.56
3.80
-0.71
-7.24
-14.48
-20.29
-22.76
-20.40
-13.92
-4.81
4.14
11.22
15.42
17.07
17.22
16.14
13.98
9.67
2.98
-6.05
-15.73
-23.50
-27.24
-25.42
-18.85
-9.15
0.83
9.26
15.02
18.19
19.58
19.28
17.42
13.08
6.27
-2.78
-12.30
-19.88
-23.66
-22.35
-16.83
-8.57
-0.12
7.05
12.06
15.00
16.59
16.76
15.58
12.10
6.31
-1.67
-10.30
-17.45
-21.44
-20.91
-16.39
-8.87
-0.44
7.60
14.26
19.11
22.30
23.22
21.71
16.94
9.31
-0.52
-10.69
-18.92
-23.57
-23.37
-18.86
-10.88
-1.40
8.29
16.98
23.82
28.51
30.22
28.81
23.79
15.96
6.27
-3.37
-10.96
-15.37
-15.78
-12.98
-7.69
-1.43
5.06
11.18
16.40
20.53
22.64
22.42
19.17
13.49
6.09
-1.43
-7.39
-10.98
-11.62
-10.19
-7.35
-4.38
-1.64
0.80
2.97
5.24
7.03
8.02
7.14
4.34
-0.36
-5.89
-10.77
-14.16
-15.30
-14.99
-13.87
-13.25
-13.32
-13.70
-13.75
-12.49
-10.20
-7.18
-4.77
-3.37
-3.26
-3.89
-4.46
-4.96
-5.37
-6.60
-8.66
-11.56
-14.15
-15.12
-13.78
-9.85
-4.53
1.17
5.77
9.16
11.46
13.36
15.47
17.33
18.47
17.55
14.27
8.53
1.74
-4.09
-7.21
-6.21
-1.66
5.21
11.90
16.80
18.83
18.29
16.33
13.48
10.22
5.66
-0.56
-8.77
-17.63
-24.79
-28.10
-25.91
-18.94
-8.97
0.86
8.49
12.78
14.17
13.97
12.72
10.72
6.83
0.62
-8.10
-17.76
-25.81
-29.97
-28.54
-22.16
-12.39
-2.13
6.70
12.82
16.24
17.72
17.40
15.48
11.10
4.26
-4.88
-14.63
-22.60
-26.81
-25.75
-20.07
-11.11
-1.44
7.24
13.74
17.88
20.19
20.58
19.17
15.18
8.73
0.08
-9.13
-16.70
-20.93
-20.49
-16.07
-8.78
-0.86
6.37
11.97
15.75
18.05
18.45
16.83
12.33
5.23
-3.99
-13.54
-21.20
-25.37
-24.81
-20.18
-12.45
-3.69
4.88
12.23
17.85
21.75
23.25
22.12
17.62
10.19
0.49
-9.61
-17.91
-22.83
-23.12
-19.31
-12.18
-3.63
5.13
13.01
19.27
23.64
25.28
23.92
18.91
10.89
0.68
-9.79
-18.36
-23.52
-24.08
-20.54
-13.57
-4.95
4.19
12.74
19.78
24.84
26.81
25.37
19.95
11.43
0.92
-9.47
-17.59
-22.20
-22.45
-19.11
-12.96
-5.62
2.10
9.40
15.56
20.18
22.15
21.07
16.28
8.56
-1.08
-10.66
-18.13
-22.33
-22.39
-19.09
-13.19
-6.27
0.87
7.58
13.30
17.84
20.21
20.02
16.51
10.27
2.07
-6.36
-13.17
-17.32
-17.96
-15.75
-11.19
-5.60
0.43
6.36
11.64
16.00
18.38
18.36
15.14
9.32
1.63
-6.26
-12.58
-16.39
-16.97
-15.03
-11.13
-6.55
-1.72
3.02
7.33
11.18
13.66
14.38
12.51
8.45
2.70
-3.37
-8.26
-11.25
-11.72
-10.37
-7.57
-4.39
-1.04
2.33
5.56
8.72
10.98
11.99
10.83
7.78
3.13
-1.99
-6.24
-9.02
-9.73
-9.03
-7.21
-5.18
-2.97
-0.53
2.14
5.18
7.71
9.26
8.74
6.29
2.16
-2.50
-6.33
-8.71
-9.07
-8.12
-6.24
-4.40
-2.66
-0.86
1.11
3.60
5.91
7.64
7.71
6.14
3.03
-0.64
-3.67
-5.56
-5.80
-5.13
-3.84
-2.76
-1.80
-0.62
1.01
3.46
5.96
7.99
8.37
7.04
4.12
0.60
-2.26
-4.00
-4.21
-3.72
-2.96
-2.77
-3.01
-3.18
-2.83
-1.31
0.85
3.27
4.74
5.04
4.00
2.21
0.61
-0.59
-1.01
-1.39
-1.88
-3.07
-4.56
-5.65
-5.80
-4.33
-1.80
1.38
3.88
5.34
5.43
4.63
3.79
3.13
2.99
2.58
1.67
-0.38
-3.14
-5.75
-7.40
-7.06
-5.01
-1.56
1.89
4.75
6.36
6.86
6.81
6.18
5.23
3.21
0.09
-4.41
-9.46
-13.74
-16.11
-15.46
-12.25
-7.16
-2.07
2.09
4.52
5.42
5.52
4.97
4.06
1.98
-1.44
-6.52
-12.25
-16.95
-19.11
-17.39
-12.33
-5.03
2.17
7.92
11.29
12.56
12.62
11.66
9.84
6.18
0.48
-7.34
-15.77
-22.57
-25.77
-23.88
-17.60
-8.36
1.07
8.93
14.02
16.49
17.26
16.61
14.88
11.19
5.37
-2.69
-11.51
-18.77
-22.46
-20.99
-15.07
-6.23
2.70
9.95
14.45
16.45
16.95
16.13
14.14
9.93
3.34
-5.53
-14.93
-22.30
-25.61
-23.51
-16.96
-7.70
1.38
8.62
13.08
15.15
15.90
15.63
14.55
11.63
6.60
-0.74
-9.07
-16.29
-20.57
-20.34
-16.04
-8.63
-0.36
7.32
13.34
17.46
20.02
20.69
19.38
15.20
8.28
-0.99
-10.83
-18.88
-23.31
-22.77
-17.93
-9.96
-1.19
6.96
13.43
17.93
20.71
21.37
19.81
15.26
8.06
-1.29
-10.97
-18.77
-23.07
-22.68
-18.27
-10.88
-2.59
5.33
11.94
16.85
20.14
21.19
19.79
15.12
7.61
-2.08
-12.03
-19.96
-24.31
-23.92
-19.52
-12.09
-3.66
4.61
11.80
17.37
21.26
22.62
21.12
15.97
7.73
-2.77
-13.48
-22.11
-27.10
-27.28
-23.24
-15.76
-6.71
2.76
11.52
18.71
23.93
26.18
25.20
20.41
12.61
2.74
-7.22
-15.17
-19.82
-20.16
-16.80
-10.41
-2.62
5.62
13.36
19.78
24.46
26.33
25.08
20.15
12.35
2.63
-7.10
-14.89
-19.61
-20.42
-18.01
-12.98
-6.78
-0.09
6.42
12.13
16.72
19.12
18.93
15.45
9.33
1.40
-6.64
-12.99
-16.75
-17.22
-15.14
-11.06
-6.24
-1.12
3.93
8.53
12.56
15.03
15.54
13.23
8.58
2.17
-4.49
-9.76
-12.85
-13.12
-11.36
-8.10
-4.53
-0.94
2.58
5.94
9.26
11.67
12.71
11.38
7.93
2.78
-2.78
-7.27
-10.04
-10.57
-9.68
-7.82
-5.99
-4.23
-2.37
-0.30
2.29
4.64
6.32
6.26
4.52
1.22
-2.63
-5.78
-7.68
-7.80
-6.83
-5.08
-3.46
-1.97
-0.40
1.41
3.83
6.17
8.03
8.33
7.07
4.31
0.97
-1.78
-3.53
-3.84
-3.53
-2.90
-2.75
-2.86
-2.77
-2.08
-0.26
2.01
4.28
5.32
4.98
3.18
0.66
-1.54
-3.06
-3.41
-3.28
-2.81
-2.68
-2.67
-2.34
-1.41
0.58
2.97
5.31
6.42
6.13
4.35
1.81
-0.44
-2.03
-2.45
-2.42
-2.13
-2.32
-2.79
-3.04
-2.69
-1.15
1.00
3.38
4.78
5.05
4.01
2.26
0.64
-0.72
-1.58
-2.69
-4.13
-6.31
-8.67
-10.37
-10.79
-9.19
-6.09
-1.92
1.96
5.06
6.82
7.44
7.54
7.17
6.70
5.46
3.47
0.33
-3.31
-6.46
-8.30
-7.90
-5.71
-2.19
1.17
3.80
5.17
5.53
5.59
5.37
5.10
3.91
1.61
-2.24
-6.93
-11.18
-13.81
-13.54
-10.66
-5.69
-0.40
4.23
7.28
8.78
9.29
8.87
7.81
5.44
1.74
-3.48
-9.18
-13.79
-15.94
-14.47
-10.03
-3.71
2.27
6.72
8.88
9.20
8.71
7.74
6.57
4.27
0.56
-4.91
-11.02
-15.98
-18.23
-16.51
-11.52
-4.50
2.17
7.16
9.69
10.23
9.88
8.96
7.71
5.07
0.66
-5.88
-13.29
-19.48
-22.55
-20.94
-15.25
-6.83
1.67
8.58
12.85
14.74
15.23
14.62
13.14
9.78
4.24
-3.64
-12.36
-19.54
-23.04
-21.26
-14.90
-5.56
3.77
11.21
15.60
17.28
17.39
16.35
14.44
10.64
4.65
-3.71
-12.91
-20.54
-24.48
-23.12
-17.11
-7.97
1.52
9.58
15.08
18.12
19.51
19.32
17.61
13.37
6.50
-2.85
-12.88
-21.03
-25.18
-23.82
-17.75
-8.53
1.02
9.12
14.62
17.61
18.88
18.53
16.73
12.59
6.11
-2.59
-11.86
-19.39
-23.32
-22.28
-17.02
-8.85
-0.25
7.33
12.93
16.55
18.71
19.15
17.77
13.56
6.60
-2.78
-12.76
-20.91
-25.34
-24.65
-19.52
-11.18
-2.06
6.32
12.87
17.33
20.03
20.64
19.14
14.72
7.69
-1.50
-11.06
-18.73
-22.90
-22.35
-17.82
-10.36
-2.08
5.80
12.40
17.35
20.74
21.87
20.45
15.60
7.70
-2.57
-13.21
-21.82
-26.70
-26.54
-21.97
-14.00
-4.77
4.37
12.26
18.28
22.36
23.80
22.44
17.62
9.89
-0.03
-10.23
-18.54
-23.42
-23.65
-19.75
-12.42
-3.46
6.00
14.87
22.22
27.47
29.39
27.48
21.08
11.12
-1.06
-12.98
-22.06
-26.79
-26.22
-21.33
-13.23
-3.99
5.19
13.33
19.73
24.20
25.89
24.62
19.86
12.40
3.17
-5.96
-13.05
-17.08
-17.38
-14.85
-10.23
-4.94
0.50
5.79
10.62
14.88
17.48
17.86
15.03
9.45
1.82
-6.11
-12.44
-16.14
-16.46
-14.23
-10.09
-5.45
-0.85
3.41
7.09
10.34
12.41
13.04
11.37
7.76
2.60
-2.83
-7.07
-9.54
-9.77
-8.64
-6.64
-4.78
-3.05
-1.19
0.99
3.78
6.39
8.29
8.34
6.60
3.27
-0.55
-3.55
-5.27
-5.33
-4.61
-3.57
-3.10
-3.03
-2.88
-2.20
-0.39
1.97
4.44
5.79
5.78
4.25
1.88
-0.25
-1.77
-2.16
-2.13
-1.90
-2.23
-2.96
-3.59
-3.64
-2.37
-0.19
2.61
4.82
6.10
6.07
5.16
4.10
3.01
2.18
0.80
-1.27
-4.54
-8.35
-11.64
-13.40
-12.60
-9.64
-5.10
-0.68
2.82
4.67
5.10
4.87
4.13
3.21
1.35
-1.56
-5.90
-10.79
-14.84
-16.78
-15.45
-11.33
-5.26
0.79
5.71
8.67
9.87
10.06
9.33
7.87
4.78
-0.09
-6.89
-14.29
-20.21
-22.88
-20.93
-15.09
-6.82
1.19
7.34
10.72
11.76
11.66
10.84
9.59
6.89
2.33
-4.38
-11.92
-18.09
-20.92
-18.92
-12.81
-4.14
4.32
10.87
14.56
15.79
15.66
14.49
12.47
8.53
2.37
-6.10
-15.30
-22.85
-26.70
-25.32
-19.43
-10.47
-1.16
6.84
12.40
15.60
17.19
17.22
15.79
11.98
5.73
-2.83
-12.06
-19.60
-23.51
-22.33
-16.74
-8.08
1.10
9.19
15.11
18.74
20.64
20.60
18.65
13.90
6.53
-3.06
-13.02
-20.97
-25.12
-24.19
-18.98
-10.74
-1.79
6.48
13.12
17.89
21.07
22.16
20.98
16.63
9.43
-0.10
-10.07
-18.20
-22.83
-22.68
-18.32
-10.64
-1.65
7.39
15.37
21.57
25.82
27.31
25.88
20.89
13.04
3.18
-6.77
-14.72
-19.34
-19.66
-16.37
-10.23
-2.90
4.71
11.76
17.58
21.91
23.80
22.96
18.79
11.99
3.38
-5.33
-12.30
-16.54
-17.24
-15.08
-10.57
-5.03
0.95
6.83
12.03
16.33
18.69
18.76
15.81
10.41
3.27
-4.06
-9.90
-13.46
-14.06
-12.44
-9.11
-5.24
-1.19
2.82
6.56
10.07
12.50
13.51
12.22
8.96
4.16
-0.96
-5.01
-7.47
-7.89
-7.11
-5.56
-4.18
-2.95
-1.60
0.04
2.35
4.63
6.48
6.82
5.67
3.11
0.01
-2.54
-4.20
-4.60
-4.56
-4.36
-4.71
-5.35
-5.70
-5.30
-3.55
-1.01
1.89
3.92
4.83
4.39
3.14
1.96
0.99
0.49
-0.39
-1.88
-4.51
-7.73
-10.54
-12.06
-11.31
-8.69
-4.71
-0.91
2.04
3.48
3.69
3.41
2.86
2.46
1.55
0.03
-2.63
-5.88
-8.73
-10.24
-9.38
-6.48
-2.08
2.18
5.50
7.14
7.35
6.83
5.70
4.23
1.59
-2.37
-7.92
-13.97
-18.73
-20.60
-18.28
-12.43
-4.34
3.45
9.46
12.78
13.83
13.70
12.72
11.12
7.84
2.55
-4.95
-13.19
-19.88
-23.04
-21.21
-15.22
-6.63
1.72
8.18
11.78
13.01
13.01
12.15
10.63
7.34
1.92
-5.81
-14.34
-21.27
-24.48
-22.45
-15.96
-6.63
2.62
9.99
14.44
16.30
16.72
16.05
14.57
11.24
5.73
-2.15
-10.93
-18.24
-22.02
-20.69
-14.93
-6.24
2.62
9.92
14.61
16.92
17.75
17.24
15.53
11.57
5.21
-3.51
-12.95
-20.73
-24.86
-23.87
-18.47
-10.05
-1.21
6.44
11.86
15.07
16.79
17.00
15.79
12.22
6.26
-1.97
-10.86
-18.16
-22.08
-21.25
-16.35
-8.59
-0.35
6.99
12.49
16.05
18.14
18.48
16.98
12.72
5.83
-3.36
-13.11
-21.16
-25.74
-25.43
-20.79
-12.80
-3.64
5.29
12.85
18.52
22.31
23.58
22.17
17.32
9.53
-0.46
-10.63
-18.61
-22.79
-22.02
-17.13
-9.28
-0.63
7.55
14.34
19.33
22.62
23.58
22.04
17.23
9.59
-0.23
-10.41
-18.81
-23.93
-24.54
-21.15
-14.48
-6.30
2.26
10.17
16.64
21.34
23.26
22.06
17.05
8.95
-1.28
-11.60
-19.77
-24.34
-24.26
-20.21
-12.98
-4.38
4.54
12.76
19.49
24.34
26.25
24.91
19.68
11.38
1.02
-9.36
-17.61
-22.41
-22.78
-19.41
-13.03
-5.30
2.85
10.56
17.08
22.04
24.35
23.63
19.21
11.84
2.48
-6.91
-14.31
-18.60
-19.00
-16.31
-11.24
-5.28
0.90
6.76
11.82
15.93
18.09
17.95
14.73
9.01
1.48
-6.18
-12.23
-15.75
-16.01
-13.80
-9.66
-4.88
0.10
4.97
9.44
13.43
16.03
16.77
14.79
10.49
4.42
-1.95
-7.04
-10.15
-10.76
-9.74
-7.60
-5.43
-3.37
-1.30
0.85
3.39
5.60
7.11
6.90
5.07
1.77
-2.05
-5.16
-7.10
-7.33
-6.58
-5.11
-3.76
-2.45
-0.89
1.07
3.69
6.17
7.94
7.86
5.97
2.50
-1.45
-4.56
-6.37
-6.51
-5.87
-4.91
-4.50
-4.49
-4.40
-3.78
-1.98
0.47
3.20
5.03
5.71
4.98
3.39
1.80
0.48
-0.11
-0.58
-0.98
-1.86
-2.89
-3.51
-3.31
-1.74
0.61
3.31
5.10
5.73
4.96
3.39
1.93
0.82
0.34
-0.32
-1.43
-3.64
-6.43
-8.90
-10.18
-9.29
-6.65
-2.72
0.96
3.77
5.13
5.30
5.00
4.39
3.80
2.58
0.68
-2.30
-5.73
-8.59
-10.00
-9.04
-6.17
-1.92
2.12
5.24
6.84
7.18
7.01
6.43
5.68
3.87
0.77
-4.02
-9.59
-14.39
-16.95
-15.94
-11.80
-5.49
0.80
5.82
8.68
9.65
9.63
8.85
7.59
4.93
0.69
-5.35
-11.96
-17.24
-19.53
-17.58
-12.11
-4.47
2.85
8.41
11.34
12.11
11.85
11.02
9.96
7.66
3.73
-2.27
-9.24
-15.22
-18.39
-17.31
-12.63
-5.67
0.99
5.92
8.34
8.83
8.59
7.96
7.09
4.78
0.54
-5.98
-13.43
-19.55
-22.28
-20.03
-13.49
-4.18
5.07
12.46
16.89
18.70
19.01
18.19
16.53
12.98
7.21
-1.00
-10.21
-18.04
-22.34
-21.46
-16.04
-7.56
1.11
8.15
12.43
14.24
14.64
13.97
12.49
9.15
3.63
-4.26
-13.01
-20.22
-23.74
-21.96
-15.58
-6.19
3.29
11.01
15.81
17.97
18.51
17.74
15.91
12.00
5.80
-2.79
-12.19
-19.99
-24.11
-22.96
-17.23
-8.41
0.73
8.46
13.68
16.55
17.89
17.76
16.23
12.23
5.62
-3.48
-13.29
-21.26
-25.26
-23.77
-17.61
-8.37
1.10
9.04
14.33
17.13
18.33
18.09
16.60
12.91
6.91
-1.39
-10.46
-18.00
-22.09
-21.19
-15.94
-7.59
1.30
9.15
14.85
18.37
20.27
20.42
18.83
14.53
7.53
-1.91
-12.03
-20.36
-24.91
-24.20
-18.93
-10.48
-1.49
6.41
12.09
15.50
17.29
17.42
15.98
12.09
5.81
-2.73
-11.89
-19.44
-23.56
-22.86
-18.00
-10.20
-1.85
5.59
11.14
14.74
16.94
17.53
16.50
12.92
6.81
-1.62
-10.76
-18.33
-22.52
-21.90
-17.04
-9.08
-0.37
7.62
13.80
17.96
20.46
21.01
19.56
15.22
8.17
-1.23
-11.21
-19.42
-24.04
-23.69
-19.05
-11.36
-3.02
4.50
10.18
13.91
16.20
16.81
15.75
12.12
6.00
-2.38
-11.40
-18.84
-22.97
-22.39
-17.69
-9.93
-1.33
6.72
13.17
17.75
20.69
21.55
20.19
15.70
8.33
-1.48
-11.86
-20.40
-25.23
-24.89
-20.01
-11.74
-2.49
6.21
13.15
18.01
21.01
21.77
20.22
15.56
8.08
-1.73
-12.01
-20.39
-25.06
-24.62
-19.70
-11.46
-2.25
6.43
13.41
18.29
21.29
21.93
20.13
15.09
7.17
-3.07
-13.69
-22.26
-26.92
-26.31
-21.13
-12.61
-3.16
5.68
12.75
17.70
20.79
21.62
20.11
15.45
7.95
-1.90
-12.21
-20.59
-25.17
-24.59
-19.55
-11.30
-2.26
6.04
12.49
16.85
19.48
20.05
18.50
13.99
6.73
-2.87
-13.00
-21.30
-25.95
-25.56
-20.73
-12.59
-3.47
5.17
12.17
17.17
20.41
21.48
20.33
16.16
9.25
0.03
-9.75
-17.79
-22.36
-22.10
-17.65
-10.11
-1.79
5.91
11.93
16.01
18.45
18.88
17.24
12.68
5.44
-4.09
-14.19
-22.56
-27.41
-27.28
-22.66
-14.52
-5.13
4.05
11.73
17.40
21.12
22.37
21.11
16.62
9.33
-0.18
-10.02
-17.93
-22.23
-21.69
-17.05
-9.45
-1.12
6.62
12.76
17.04
19.71
20.35
18.88
14.53
7.57
-1.56
-11.15
-19.00
-23.49
-23.31
-19.10
-11.87
-3.80
3.80
9.92
14.29
17.19
18.18
17.16
13.25
6.68
-2.20
-11.62
-19.35
-23.63
-23.10
-18.37
-10.50
-1.76
6.48
13.14
17.92
21.04
22.02
20.73
16.32
9.07
-0.52
-10.61
-18.89
-23.62
-23.46
-19.05
-11.44
-2.87
5.26
11.84
16.53
19.54
20.43
19.15
14.91
8.00
-1.17
-10.84
-18.79
-23.30
-23.03
-18.59
-11.05
-2.64
5.27
11.65
16.21
19.21
20.20
19.05
14.90
7.96
-1.35
-11.28
-19.54
-24.35
-24.29
-19.91
-12.21
-3.43
5.00
11.91
16.90
20.14
21.14
19.81
15.36
8.11
-1.43
-11.36
-19.31
-23.51
-22.68
-17.59
-9.55
-1.02
6.57
12.22
15.88
18.04
18.50
17.22
13.29
6.80
-2.04
-11.56
-19.52
-24.13
-23.96
-19.59
-12.12
-3.83
3.87
9.93
14.13
16.82
17.60
16.32
12.05
4.94
-4.61
-14.72
-22.92
-27.26
-26.28
-20.69
-11.80
-2.17
6.55
13.19
17.57
20.16
20.80
19.52
15.49
8.79
-0.34
-10.24
-18.56
-23.36
-23.08
-18.22
-9.91
-0.61
8.06
14.85
19.43
22.15
22.71
21.11
16.50
9.09
-0.73
-11.08
-19.50
-24.03
-23.24
-17.85
-9.21
0.07
8.40
14.62
18.63
20.88
21.14
19.38
14.68
7.19
-2.71
-13.11
-21.47
-25.79
-24.67
-18.97
-10.22
-1.21
6.39
11.52
14.35
15.74
15.83
14.77
11.55
6.01
-1.92
-10.68
-17.98
-21.84
-20.76
-15.42
-7.24
1.09
7.98
12.41
14.68
15.74
15.77
14.92
12.12
7.07
-0.41
-8.90
-16.16
-20.22
-19.53
-14.71
-7.06
0.82
7.35
11.52
13.59
14.44
14.23
13.06
9.86
4.36
-3.60
-12.49
-19.96
-23.93
-22.80
-17.22
-8.67
0.02
7.12
11.55
13.62
14.38
14.12
13.01
9.98
4.69
-3.06
-11.80
-19.19
-23.16
-22.14
-16.79
-8.55
-0.14
6.86
11.46
14.01
15.45
15.90
15.37
12.70
7.58
-0.08
-8.67
-15.79
-19.46
-18.27
-13.10
-5.52
1.72
7.16
10.00
10.83
10.83
10.36
9.60
7.48
3.64
-2.25
-9.01
-14.82
-18.09
-17.62
-14.08
-8.55
-3.15
1.07
3.42
4.26
4.41
4.03
3.41
1.81
-0.76
-4.54
-8.64
-11.86
-13.32
-12.23
-9.31
-5.28
-1.75
0.72
1.64
1.36
0.65
-0.26
-0.86
-1.59
-2.35
-3.58
-4.84
-5.62
-5.51
-3.99
-1.62
1.18
3.18
4.06
3.44
1.73
-0.24
-2.06
-2.99
-3.31
-2.86
-2.20
-1.19
0.30
2.26
4.84
7.17
8.74
8.44
6.31
2.49
-2.03
-5.98
-8.69
-9.40
-8.55
-6.23
-3.32
0.06
3.72
7.39
10.94
13.30
13.92
11.79
7.21
0.60
-6.62
-12.75
-16.68
-17.26
-14.77
-9.44
-2.57
5.07
12.62
19.23
24.42
27.05
26.66
22.50
15.23
5.66
-4.35
-12.75
-18.14
-19.28
-16.48
-10.15
-1.83
7.46
16.51
24.22
29.87
32.18
30.73
24.96
15.72
4.07
-7.89
-17.85
-24.21
-25.63
-22.50
-15.50
-6.53
3.10
12.03
19.32
24.48
26.54
25.23
19.93
11.37
0.44
-10.78
-19.91
-25.27
-25.53
-21.31
-13.57
-4.49
4.59
12.42
18.47
22.62
24.13
22.76
17.69
9.37
-1.52
-12.90
-22.22
-27.50
-27.26
-22.17
-13.54
-3.98
4.85
11.67
16.30
19.16
20.04
18.94
14.96
8.23
-0.96
-10.83
-18.98
-23.54
-23.18
-18.76
-11.70
-4.52
1.43
5.39
7.72
9.23
9.86
9.48
6.84
1.67
-6.05
-14.66
-21.79
-25.52
-24.54
-19.76
-12.76
-6.20
-1.45
0.81
1.21
1.01
0.64
0.43
-0.54
-2.57
-6.04
-10.06
-13.25
-14.52
-13.07
-9.73
-5.48
-2.13
-0.32
-0.37
-1.60
-2.86
-3.71
-3.58
-3.11
-2.47
-2.37
-2.55
-2.50
-1.77
0.21
2.75
5.31
6.53
6.14
3.98
0.84
-2.11
-4.26
-4.85
-4.32
-2.74
-0.90
1.20
3.59
6.21
9.17
11.56
12.86
11.95
8.89
3.83
-2.08
-7.35
-10.96
-11.72
-9.81
-5.29
0.68
7.43
14.15
20.05
24.72
27.06
26.66
22.75
15.88
6.70
-3.12
-11.65
-17.51
-19.33
-17.25
-11.54
-3.65
5.39
14.31
21.99
27.69
30.16
28.98
23.57
14.77
3.60
-7.85
-17.28
-23.12
-24.10
-20.75
-13.86
-5.39
3.39
11.24
17.45
21.79
23.46
22.29
17.62
10.00
0.10
-10.24
-18.81
-23.96
-24.36
-20.51
-13.29
-4.82
3.59
10.77
16.26
20.05
21.50
20.38
15.82
8.13
-2.11
-12.92
-21.78
-26.73
-26.35
-21.36
-13.11
-4.22
3.77
9.77
13.77
16.31
17.16
16.18
12.29
5.46
-4.00
-14.20
-22.58
-27.13
-26.50
-21.58
-13.89
-6.08
0.43
4.75
7.20
8.60
9.00
8.49
6.13
1.89
-4.26
-10.95
-16.41
-19.27
-18.55
-15.08
-9.91
-5.04
-1.33
0.61
1.17
1.15
0.75
0.37
-0.60
-2.10
-4.44
-6.92
-8.68
-9.08
-7.54
-4.85
-1.70
0.41
1.05
-0.11
-2.50
-5.06
-7.20
-8.00
-7.68
-6.08
-3.92
-1.24
1.87
5.21
8.80
11.68
13.32
12.60
9.64
4.63
-1.26
-6.50
-10.03
-10.65
-8.48
-3.56
2.97
10.42
17.88
24.42
29.46
31.79
30.97
26.32
18.50
8.29
-2.54
-11.98
-18.60
-20.97
-19.15
-13.38
-5.17
4.38
13.83
21.96
27.95
30.56
29.48
24.18
15.54
4.53
-6.79
-16.19
-22.06
-23.05
-19.59
-12.48
-3.71
5.36
13.39
19.65
23.89
25.34
23.81
18.65
10.43
-0.15
-11.12
-20.14
-25.45
-25.74
-21.68
-14.42
-6.29
1.37
7.54
12.14
15.47
17.03
16.46
12.62
5.58
-4.24
-14.75
-23.36
-28.10
-27.77
-23.42
-16.71
-10.27
-5.39
-2.77
-1.83
-1.47
-1.43
-1.45
-2.42
-4.52
-8.03
-12.00
-15.09
-16.30
-14.88
-11.63
-7.43
-3.98
-1.83
-1.37
-2.09
-3.10
-4.09
-4.51
-4.84
-4.96
-5.30
-5.46
-4.95
-3.49
-0.78
2.27
4.99
5.96
4.92
1.73
-2.72
-7.01
-10.06
-10.55
-8.45
-3.74
2.44
9.35
16.12
21.99
26.65
29.18
29.30
26.30
20.61
12.69
3.95
-3.91
-9.63
-11.83
-10.51
-5.71
1.30
9.66
18.17
25.69
31.37
33.84
32.59
26.97
17.83
6.22
-5.74
-15.68
-22.00
-23.41
-20.49
-14.16
-6.51
1.20
7.85
13.00
16.64
18.07
17.00
12.50
4.93
-5.14
-15.67
-24.24
-29.06
-28.96
-24.88
-18.22
-11.41
-5.66
-1.71
0.77
2.53
3.51
3.69
2.10
-1.29
-6.48
-12.17
-16.77
-19.10
-18.38
-15.46
-11.28
-7.62
-5.13
-4.32
-4.75
-5.57
-6.40
-6.54
-6.33
-5.60
-4.86
-3.88
-2.37
-0.20
2.88
6.01
8.57
9.25
7.88
4.34
-0.45
-5.09
-8.49
-9.23
-7.17
-2.10
4.93
13.17
21.51
28.84
34.44
37.06
36.30
31.53
23.48
12.97
1.83
-7.87
-14.60
-16.97
-15.22
-9.86
-2.68
5.12
12.29
18.05
22.15
23.81
22.85
18.60
11.55
2.24
-7.62
-15.95
-21.18
-22.02
-18.99
-12.98
-6.02
0.76
6.45
10.89
14.25
15.85
15.25
11.26
4.00
-6.03
-16.71
-25.46
-30.30
-30.03
-25.70
-18.91
-12.32
-7.25
-4.43
-3.36
-2.94
-2.85
-2.71
-3.32
-4.75
-7.32
-10.12
-12.00
-12.13
-9.94
-6.44
-2.58
-0.06
0.64
-0.71
-3.29
-5.88
-7.76
-7.96
-6.73
-4.00
-0.59
3.33
7.55
11.76
15.90
18.92
20.27
18.83
14.72
8.19
0.56
-6.42
-11.38
-12.84
-10.77
-5.23
2.38
11.08
19.58
26.82
32.14
34.38
33.22
28.03
19.60
8.80
-2.42
-11.90
-18.09
-19.72
-17.22
-11.33
-3.93
3.81
10.79
16.47
20.70
22.64
21.94
17.66
10.16
-0.02
-10.95
-20.26
-26.18
-27.39
-24.58
-18.88
-12.55
-6.79
-2.47
0.51
2.66
3.71
3.63
1.50
-2.56
-8.40
-14.59
-19.47
-21.88
-21.08
-17.97
-13.54
-9.55
-6.64
-5.30
-5.16
-5.46
-5.98
-6.14
-6.31
-6.23
-6.28
-6.05
-5.12
-3.31
-0.34
2.88
5.71
6.80
5.91
2.83
-1.64
-6.17
-9.65
-10.57
-8.63
-3.49
3.83
12.53
21.38
29.15
35.03
37.74
36.91
31.93
23.62
12.88
1.59
-8.15
-14.84
-17.11
-15.15
-9.37
-1.43
7.50
16.05
23.18
28.29
30.34
29.11
24.04
15.89
5.44
-5.40
-14.46
-20.16
-21.26
-18.36
-12.45
-5.68
0.73
5.85
9.59
12.33
13.60
13.13
9.77
3.51
-5.36
-15.03
-23.13
-27.87
-28.07
-24.67
-19.09
-13.73
-9.66
-7.50
-6.69
-6.24
-6.02
-5.85
-6.66
-8.55
-11.75
-15.24
-17.69
-18.12
-15.88
-11.89
-7.10
-3.31
-1.13
-1.01
-2.35
-4.05
-5.39
-5.29
-3.83
-0.82
2.97
7.28
11.79
16.08
20.04
22.64
23.38
21.23
16.41
9.24
1.10
-6.26
-11.49
-13.13
-11.17
-5.65
2.08
11.05
19.98
27.72
33.52
36.12
35.17
30.07
21.59
10.66
-0.77
-10.45
-16.79
-18.46
-15.95
-10.08
-2.91
4.33
10.55
15.32
18.67
19.89
18.69
14.10
6.42
-3.83
-14.65
-23.64
-28.98
-29.42
-25.75
-19.27
-12.33
-6.17
-1.61
1.53
3.83
5.07
5.14
3.02
-1.25
-7.54
-14.30
-19.69
-22.37
-21.50
-18.04
-13.15
-8.83
-5.84
-4.67
-4.79
-5.20
-5.51
-5.12
-4.56
-3.83
-3.55
-3.38
-2.85
-1.56
0.92
3.84
6.54
7.63
6.78
3.80
-0.47
-4.66
-7.78
-8.53
-6.88
-2.69
3.07
9.83
16.79
23.12
28.31
31.17
31.20
27.57
20.83
11.60
1.56
-7.30
-13.50
-15.61
-13.73
-8.19
-0.61
7.89
15.99
22.71
27.55
29.52
28.38
23.51
15.58
5.30
-5.42
-14.40
-20.03
-21.01
-17.93
-11.75
-4.62
2.22
7.82
12.00
15.01
16.26
15.40
11.28
4.02
-5.94
-16.56
-25.30
-30.28
-30.33
-26.49
-20.33
-14.43
-10.00
-7.66
-6.83
-6.39
-6.08
-5.63
-5.93
-7.14
-9.61
-12.45
-14.44
-14.69
-12.55
-8.92
-4.73
-1.70
-0.36
-1.04
-3.05
-5.21
-6.82
-6.94
-5.80
-3.29
-0.23
3.26
7.01
10.81
14.63
17.54
18.97
17.79
14.05
7.90
0.61
-6.05
-10.70
-11.77
-9.22
-3.15
5.01
14.17
23.05
30.53
35.96
38.15
36.72
31.05
21.91
10.28
-1.74
-11.82
-18.34
-20.00
-17.35
-11.25
-3.73
3.96
10.73
16.07
19.88
21.40
20.29
15.67
7.89
-2.42
-13.20
-21.97
-26.89
-26.77
-22.58
-15.87
-9.22
-3.93
-0.67
1.08
2.30
3.02
3.16
1.53
-2.11
-7.87
-14.31
-19.51
-22.04
-20.96
-17.23
-12.08
-7.58
-4.54
-3.40
-3.54
-3.97
-4.41
-4.47
-4.83
-5.52
-6.92
-8.38
-9.08
-8.43
-5.94
-2.50
1.13
3.37
3.80
2.10
-1.00
-4.24
-6.69
-7.08
-5.39
-1.47
3.71
9.64
15.61
20.97
25.40
27.83
27.86
24.61
18.46
9.92
0.51
-7.87
-13.80
-15.79
-13.85
-8.15
-0.14
9.07
18.14
25.90
31.62
34.07
32.87
27.41
18.52
7.15
-4.61
-14.40
-20.54
-21.71
-18.43
-11.66
-3.56
4.47
11.27
16.36
19.79
20.98
19.73
15.19
7.69
-2.29
-12.83
-21.56
-26.67
-26.84
-22.81
-15.89
-8.46
-1.85
3.07
6.41
8.71
9.64
9.01
5.68
-0.30
-8.64
-17.47
-24.48
-28.01
-27.05
-22.73
-16.57
-11.00
-7.09
-5.41
-5.31
-5.64
-5.97
-5.78
-5.72
-5.89
-6.76
-7.80
-8.20
-7.40
-4.91
-1.57
1.85
3.84
4.06
2.30
-0.60
-3.40
-5.38
-5.62
-4.43
-1.82
1.36
4.94
8.74
12.53
16.25
18.85
19.73
17.75
13.07
5.97
-2.14
-9.43
-14.50
-15.81
-13.30
-7.04
1.56
11.40
21.07
29.28
35.17
37.47
35.80
29.68
20.04
8.00
-4.30
-14.55
-21.14
-22.76
-19.84
-13.12
-4.54
4.57
12.90
19.59
24.29
26.14
24.94
20.05
12.09
1.79
-8.88
-17.61
-22.69
-22.86
-18.81
-11.70
-3.87
3.34
8.94
12.87
15.58
16.72
16.11
12.70
6.50
-2.29
-11.87
-19.89
-24.46
-24.18
-19.82
-12.68
-5.24
1.15
5.63
8.44
10.26
10.97
10.49
7.75
2.67
-4.64
-12.59
-19.05
-22.43
-21.69
-17.79
-12.11
-6.97
-3.40
-1.94
-1.94
-2.27
-2.57
-2.46
-2.76
-3.67
-5.69
-8.18
-10.11
-10.68
-9.16
-6.30
-2.80
-0.26
0.88
0.28
-1.41
-3.15
-4.46
-4.71
-4.38
-3.54
-2.84
-2.11
-1.02
0.62
3.11
5.55
7.32
7.10
4.82
0.55
-4.61
-9.20
-12.30
-12.94
-11.45
-7.98
-3.59
1.28
6.22
10.77
14.76
17.17
17.56
14.99
9.85
2.62
-5.17
-11.73
-15.85
-16.32
-13.44
-7.49
0.11
8.50
16.68
23.71
29.05
31.51
30.69
25.87
17.77
7.30
-3.59
-12.70
-18.57
-19.95
-17.30
-11.24
-3.50
4.81
12.62
19.09
23.86
25.87
24.80
19.94
11.96
1.69
-8.92
-17.68
-23.06
-23.80
-20.36
-13.42
-4.86
4.12
12.31
18.93
23.63
25.54
24.38
19.50
11.48
1.10
-9.68
-18.53
-23.78
-24.12
-20.17
-12.98
-4.76
3.13
9.57
14.25
17.38
18.49
17.51
13.58
6.94
-2.09
-11.77
-19.81
-24.35
-23.91
-19.02
-10.84
-1.78
6.61
13.10
17.52
20.25
20.99
19.70
15.42
8.27
-1.42
-11.75
-20.19
-24.72
-23.95
-18.77
-10.80
-2.81
3.64
7.68
9.72
10.75
10.93
10.28
7.65
2.75
-4.57
-12.83
-19.83
-23.71
-23.07
-18.60
-11.58
-4.43
1.53
5.48
7.74
9.13
9.65
9.31
7.00
2.53
-4.17
-11.62
-17.75
-20.82
-19.62
-14.94
-8.12
-1.58
3.41
6.10
6.91
6.89
6.41
5.89
4.57
2.33
-1.23
-5.31
-8.74
-10.55
-9.84
-7.22
-3.32
0.26
2.93
4.17
4.27
3.94
3.28
2.67
1.53
-0.02
-2.30
-4.70
-6.40
-6.86
-5.52
-3.08
-0.13
1.92
2.68
1.83
-0.10
-2.13
-3.81
-4.39
-4.23
-3.29
-2.24
-1.05
0.44
2.26
4.70
6.97
8.67
8.68
7.03
3.78
-0.13
-3.46
-5.69
-6.19
-5.56
-4.00
-2.35
-0.60
1.38
3.60
6.25
8.49
9.83
9.16
6.55
2.12
-3.06
-7.59
-10.64
-11.24
-9.74
-6.30
-1.98
2.79
7.58
11.91
15.59
17.62
17.53
14.46
8.86
1.36
-6.45
-12.82
-16.80
-17.54
-15.70
-11.70
-6.80
-1.43
3.99
8.99
13.33
15.90
16.15
13.15
7.37
-0.54
-8.91
-15.84
-20.13
-20.64
-17.77
-11.88
-4.43
3.70
11.57
18.29
23.39
25.75
24.99
20.45
12.86
3.08
-7.02
-15.39
-20.74
-21.90
-19.28
-13.31
-5.44
3.41
12.19
19.85
25.67
28.30
27.21
21.73
12.75
1.40
-10.13
-19.51
-25.21
-26.03
-22.49
-15.33
-6.44
2.98
11.70
18.80
23.87
25.92
24.68
19.58
11.40
1.03
-9.54
-18.14
-23.35
-24.02
-20.68
-14.01
-5.76
3.05
11.31
18.21
23.25
25.28
23.88
18.35
9.45
-1.83
-13.32
-22.66
-28.19
-28.62
-24.50
-16.71
-7.33
2.25
10.76
17.41
21.98
23.68
22.35
17.37
9.35
-0.95
-11.52
-20.02
-24.77
-24.54
-20.04
-12.44
-4.05
3.76
9.90
14.17
16.92
17.87
17.05
13.66
7.84
-0.21
-8.96
-16.33
-20.62
-20.43
-16.25
-9.09
-1.16
6.17
11.82
15.62
17.96
18.56
17.41
13.64
7.33
-1.28
-10.58
-18.33
-22.71
-22.33
-17.78
-10.27
-2.20
4.97
10.22
13.54
15.50
15.95
14.87
11.27
5.10
-3.56
-13.07
-21.05
-25.46
-24.71
-19.39
-10.83
-1.73
6.20
11.76
15.03
16.78
17.05
15.94
12.45
6.41
-2.13
-11.52
-19.34
-23.51
-22.46
-16.88
-8.22
0.74
8.29
13.31
16.00
17.26
17.32
16.37
13.43
8.23
0.58
-8.08
-15.50
-19.65
-18.94
-13.99
-6.18
1.78
8.26
12.25
14.06
14.69
14.35
13.18
10.06
4.67
-3.15
-11.87
-19.13
-22.86
-21.58
-16.08
-7.92
0.10
6.37
9.99
11.47
11.93
11.69
10.90
8.41
3.88
-2.94
-10.66
-17.13
-20.51
-19.45
-14.73
-7.73
-0.99
4.13
6.89
7.79
7.96
7.68
7.15
5.29
1.75
-3.81
-10.20
-15.53
-18.18
-16.88
-12.37
-5.90
0.19
4.73
7.04
7.67
7.73
7.55
7.38
6.26
3.86
-0.25
-5.14
-9.31
-11.49
-10.62
-7.37
-2.67
1.53
4.40
5.41
5.08
4.41
3.69
3.26
2.32
0.69
-2.13
-5.48
-8.31
-9.72
-8.84
-6.20
-2.40
1.02
3.50
4.58
4.62
4.39
4.03
3.89
3.29
2.19
0.14
-2.29
-4.30
-5.22
-4.37
-2.33
0.40
2.42
3.31
2.67
0.96
-0.96
-2.71
-3.62
-4.08
-4.00
-3.96
-3.80
-3.21
-2.04
0.10
2.52
4.83
5.85
5.47
3.59
0.91
-1.48
-3.16
-3.53
-3.19
-2.25
-1.47
-0.72
0.27
1.67
3.82
5.98
7.68
7.78
6.23
3.04
-0.88
-4.35
-6.77
-7.41
-6.72
-4.83
-2.59
-0.08
2.66
5.47
8.40
10.52
11.33
9.82
6.18
0.76
-5.18
-10.16
-13.39
-14.13
-12.92
-10.05
-6.58
-2.77
1.14
4.90
8.50
11.05
12.12
10.78
7.27
1.92
-4.04
-9.09
-12.34
-12.84
-10.99
-7.03
-2.08
3.36
8.77
13.61
17.62
19.76
19.57
16.24
10.29
2.42
-5.77
-12.48
-16.74
-17.66
-15.80
-11.56
-6.19
-0.22
5.79
11.22
15.72
18.15
18.05
14.60
8.41
0.21
-8.31
-15.31
-19.64
-20.29
-17.68
-12.21
-5.26
2.39
9.86
16.30
21.22
23.44
22.59
17.99
10.44
0.83
-8.96
-16.99
-22.07
-23.19
-20.87
-15.52
-8.53
-0.66
7.20
14.14
19.57
22.21
21.57
16.98
9.23
-0.72
-10.88
-19.14
-24.17
-24.81
-21.53
-14.88
-6.46
2.70
11.51
18.97
24.48
26.84
25.66
20.35
11.81
1.16
-9.48
-17.94
-22.89
-23.34
-19.91
-13.25
-4.96
4.04
12.76
20.26
25.90
28.37
27.15
21.59
12.56
1.19
-10.35
-19.76
-25.59
-26.70
-23.64
-17.10
-8.84
0.02
8.35
15.26
20.29
22.39
21.28
16.38
8.46
-1.55
-11.70
-19.91
-24.83
-25.33
-21.94
-15.27
-7.00
1.85
10.20
17.20
22.38
24.68
23.80
19.08
11.25
1.17
-9.23
-17.74
-22.84
-23.32
-19.70
-12.79
-4.54
3.85
11.25
17.05
21.08
22.57
21.31
16.58
8.90
-1.06
-11.40
-19.89
-24.87
-25.06
-20.99
-13.56
-4.87
3.77
11.18
16.81
20.62
21.98
20.77
16.27
8.92
-0.68
-10.67
-18.80
-23.37
-23.15
-18.82
-11.52
-3.53
3.82
9.56
13.55
16.18
17.08
16.15
12.45
6.08
-2.70
-12.19
-20.10
-24.55
-24.06
-19.18
-11.02
-2.00
6.36
12.89
17.38
20.20
21.03
19.81
15.62
8.60
-0.89
-11.01
-19.26
-23.66
-22.77
-17.35
-8.83
0.09
7.74
13.00
15.95
17.35
17.30
15.97
12.43
6.58
-1.64
-10.74
-18.45
-22.81
-22.23
-17.29
-9.30
-0.89
6.35
11.35
14.27
15.90
16.25
15.33
12.01
6.08
-2.46
-11.91
-19.75
-23.83
-22.56
-16.68
-7.77
1.29
8.70
13.34
15.51
16.21
15.73
14.29
10.84
5.10
-3.09
-12.18
-19.81
-23.86
-22.75
-17.18
-8.66
-0.02
7.09
11.66
14.08
15.32
15.54
14.76
11.74
6.15
-2.08
-11.25
-18.87
-22.83
-21.69
-16.38
-8.55
-1.04
4.59
7.55
8.44
8.49
8.11
7.51
5.61
2.02
-3.64
-10.18
-15.73
-18.63
-17.62
-13.35
-7.01
-0.86
3.93
6.61
7.60
7.83
7.50
6.89
5.12
2.08
-2.49
-7.53
-11.57
-13.40
-12.05
-8.26
-2.97
1.88
5.42
7.03
7.12
6.63
5.88
5.32
4.30
2.75
0.17
-2.89
-5.52
-6.94
-6.31
-4.09
-0.77
2.27
4.54
5.61
5.82
5.85
5.66
5.45
4.39
2.40
-0.84
-4.56
-7.68
-9.29
-8.55
-5.98
-2.19
1.30
3.89
5.01
4.94
4.40
3.56
2.90
1.90
0.64
-1.32
-3.50
-5.23
-5.95
-4.98
-2.85
0.02
2.35
3.77
3.92
3.20
2.37
1.55
1.09
0.35
-0.67
-2.42
-4.37
-5.77
-6.06
-4.61
-2.02
1.22
3.76
5.21
5.17
4.07
2.79
1.62
1.15
0.86
0.70
0.06
-0.83
-1.49
-1.53
-0.35
1.53
3.74
5.06
5.29
4.22
2.46
0.91
-0.21
-0.56
-0.88
-1.32
-2.41
-3.72
-4.55
-4.39
-2.71
-0.24
2.42
3.94
4.07
2.67
0.47
-1.46
-2.75
-2.88
-2.55
-1.95
-1.82
-2.00
-2.06
-1.61
-0.09
1.97
4.20
5.41
5.39
3.94
1.65
-0.50
-2.19
-2.86
-3.08
-2.93
-3.01
-3.10
-2.76
-1.74
0.39
2.94
5.44
6.69
6.55
4.96
2.64
0.63
-0.74
-1.05
-1.03
-0.87
-1.27
-1.95
-2.38
-2.15
-0.72
1.30
3.47
4.58
4.46
2.93
0.63
-1.52
-3.22
-3.98
-4.35
-4.38
-4.64
-4.89
-4.72
-3.85
-1.83
0.75
3.52
5.34
6.02
5.30
3.69
2.05
0.64
-0.03
-0.45
-0.63
-1.08
-1.52
-1.49
-0.76
1.07
3.25
5.31
6.07
5.44
3.33
0.46
-2.15
-4.15
-5.00
-5.26
-4.95
-4.67
-4.21
-3.26
-1.70
0.73
3.22
5.29
5.82
4.81
2.30
-0.86
-3.54
-5.33
-5.68
-5.21
-4.10
-3.10
-2.12
-0.93
0.61
2.82
5.01
6.78
7.04
5.78
3.00
-0.51
-3.65
-5.95
-6.81
-6.73
-5.79
-4.68
-3.34
-1.60
0.53
3.22
5.57
7.10
6.69
4.44
0.54
-3.93
-7.65
-10.00
-10.37
-9.41
-7.41
-5.34
-3.26
-1.08
1.23
3.93
6.22
7.64
7.14
4.79
0.73
-4.02
-8.19
-11.14
-12.09
-11.48
-9.38
-6.63
-3.35
0.24
3.79
7.13
9.21
9.52
7.12
2.41
-4.10
-10.98
-16.71
-20.53
-21.74
-21.03
-18.76
-16.05
-13.12
-10.24
-7.59
-5.27
-4.18
-4.80
-8.01
-13.46
-20.77
-28.55
-35.54
-40.72
-43.32
-43.52
-41.11
-36.77
-30.55
-23.11
-15.01
-7.08
-0.21
5.39
9.46
12.93
16.19
20.11
24.80
30.07
35.52
40.21
43.64
44.69
43.09
38.43
31.20
22.37
13.29
5.67
0.46
-1.39
-0.28
3.52
8.77
14.80
20.82
25.96
29.77
31.13
29.72
24.94
17.53
8.27
-1.22
-9.15
-14.45
-16.02
-14.18
-9.16
-2.26
5.74
13.84
20.99
26.48
28.95
27.91
22.68
14.13
3.31
-7.72
-16.79
-22.52
-23.74
-20.95
-14.70
-6.63
2.21
10.69
17.81
23.02
25.16
23.90
18.69
10.35
-0.14
-10.81
-19.54
-24.96
-25.84
-22.62
-15.85
-7.19
2.26
11.28
18.85
24.38
26.75
25.65
20.52
12.19
1.62
-9.12
-17.81
-22.97
-23.46
-19.91
-13.20
-5.29
2.68
9.67
15.16
19.04
20.54
19.43
14.92
7.47
-2.31
-12.59
-21.15
-26.29
-26.62
-22.54
-14.89
-5.77
3.45
11.44
17.59
21.82
23.50
22.52
18.16
10.86
1.16
-9.04
-17.39
-22.10
-21.78
-17.09
-9.23
-0.64
7.21
13.18
17.12
19.44
19.88
18.40
14.12
7.16
-2.23
-12.26
-20.53
-25.08
-24.43
-19.28
-11.03
-2.32
5.24
10.59
13.85
15.77
16.28
15.38
11.95
5.83
-2.90
-12.52
-20.58
-25.01
-24.33
-19.28
-11.32
-3.12
3.79
8.41
11.02
12.49
12.88
12.26
9.53
4.49
-2.94
-11.28
-18.37
-22.38
-21.97
-17.84
-11.28
-4.67
0.75
4.18
6.00
7.09
7.53
7.42
5.77
2.38
-2.91
-8.91
-13.91
-16.58
-15.88
-12.59
-7.75
-3.34
-0.23
1.01
0.84
0.21
-0.55
-0.91
-1.49
-2.33
-3.95
-5.88
-7.36
-7.77
-6.40
-3.81
-0.52
2.06
3.51
3.41
2.21
0.76
-0.62
-1.32
-1.78
-1.93
-2.26
-2.46
-2.14
-1.06
1.08
3.47
5.57
6.15
5.05
2.23
-1.50
-4.93
-7.41
-8.08
-7.32
-5.17
-2.52
0.47
3.65
6.79
9.96
12.25
13.25
11.94
8.53
3.31
-2.51
-7.47
-10.69
-11.27
-9.62
-5.93
-1.27
3.94
9.24
14.11
18.32
20.76
20.94
17.93
12.13
4.07
-4.69
-12.31
-17.48
-18.88
-16.63
-10.94
-3.19
5.67
14.48
22.14
27.93
30.58
29.64
24.48
15.96
5.11
-6.01
-15.18
-20.95
-22.11
-19.14
-12.65
-4.36
4.62
13.09
20.12
25.19
27.22
25.92
20.68
12.28
1.59
-9.40
-18.44
-23.94
-24.59
-20.88
-13.67
-5.00
3.76
11.39
17.25
21.21
22.58
21.19
16.30
8.43
-1.78
-12.34
-20.89
-25.66
-25.38
-20.78
-13.07
-4.60
3.25
9.44
13.85
16.83
18.01
17.28
13.70
7.33
-1.54
-11.17
-19.19
-23.63
-23.02
-18.00
-9.91
-1.35
6.08
11.30
14.41
16.17
16.53
15.52
12.07
6.02
-2.54
-11.93
-19.74
-23.98
-23.24
-18.34
-10.81
-3.30
2.75
6.52
8.46
9.54
9.85
9.36
6.88
2.11
-5.04
-12.98
-19.47
-22.67
-21.39
-16.60
-9.87
-3.80
0.40
2.14
2.20
1.87
1.61
1.69
1.08
-0.61
-3.93
-8.07
-11.69
-13.64
-12.93
-10.15
-6.07
-2.38
0.25
1.29
1.13
0.61
-0.05
-0.35
-0.84
-1.46
-2.66
-3.97
-4.74
-4.51
-2.73
-0.10
2.81
4.61
4.95
3.53
0.98
-1.61
-3.62
-4.19
-3.66
-2.02
-0.08
2.08
4.42
6.84
9.46
11.40
12.21
10.80
7.32
1.99
-3.99
-9.13
-12.59
-13.44
-12.10
-8.75
-4.46
0.39
5.38
10.08
14.25
16.83
17.29
14.67
9.35
1.86
-6.25
-13.11
-17.45
-18.01
-15.04
-8.85
-0.88
7.90
16.39
23.59
28.94
31.28
30.24
25.19
16.93
6.40
-4.44
-13.46
-19.24
-20.59
-17.92
-11.79
-3.84
4.89
13.27
20.41
25.75
28.16
27.25
22.34
14.16
3.62
-7.23
-16.11
-21.46
-22.06
-18.52
-11.78
-3.90
3.87
10.46
15.43
18.86
20.15
19.18
15.14
8.37
-0.70
-10.37
-18.49
-23.38
-23.63
-19.74
-12.59
-4.34
3.68
10.35
15.33
18.74
20.06
19.07
14.84
7.59
-2.25
-12.72
-21.30
-25.98
-25.34
-20.13
-11.85
-3.20
4.21
9.35
12.39
14.16
14.64
13.84
10.64
4.89
-3.40
-12.56
-20.27
-24.62
-24.31
-20.15
-13.58
-7.07
-1.86
1.35
3.08
4.25
4.97
5.23
3.91
0.76
-4.45
-10.47
-15.53
-18.18
-17.29
-13.56
-8.02
-2.69
1.44
3.67
4.32
4.26
3.80
3.48
2.78
1.77
0.02
-1.92
-3.28
-3.49
-1.92
0.73
3.81
5.79
6.08
4.19
0.66
-3.28
-6.67
-8.11
-7.49
-4.64
-0.55
4.24
9.17
13.71
17.74
20.33
21.03
18.81
13.90
6.79
-0.93
-7.27
-11.01
-11.24
-8.85
-4.78
-0.80
2.40
4.69
6.37
8.07
9.37
9.87
8.34
4.63
-1.11
-7.38
-12.22
-14.38
-13.01
-9.20
-4.11
0.34
3.48
5.32
6.50
7.87
9.15
9.92
8.77
5.39
-0.20
-6.49
-11.41
-13.59
-12.20
-8.47
-3.84
-0.49
0.82
0.22
-1.20
-1.94
-1.65
-0.32
0.69
0.73
-0.85
-3.31
-5.28
-5.79
-4.06
-1.04
2.31
4.28
4.46
3.03
1.04
-0.16
-0.27
0.79
1.80
2.17
1.22
-0.51
-1.93
-2.28
-0.87
1.41
3.70
4.40
3.22
0.37
-2.99
-5.34
-6.21
-5.31
-3.80
-2.32
-1.86
-2.24
-2.74
-2.76
-1.52
0.40
2.49
3.43
2.95
1.08
-1.33
-3.12
-4.04
-3.92
-3.86
-4.27
-5.77
-7.75
-9.12
-9.04
-6.82
-3.39
0.21
2.11
1.73
-1.06
-5.11
-8.72
-10.87
-10.66
-8.74
-5.63
-2.50
0.41
3.23
6.10
9.24
11.64
12.52
10.55
5.86
-0.93
-8.05
-13.48
-16.18
-15.49
-12.40
-7.74
-2.95
1.54
5.62
9.28
12.68
14.94
15.56
13.48
8.97
2.51
-4.33
-9.75
-12.66
-12.07
-8.53
-2.47
4.70
12.24
19.37
25.37
29.83
31.67
30.48
25.51
17.40
6.91
-4.15
-13.71
-20.26
-22.39
-20.25
-14.18
-5.77
3.81
13.17
21.14
27.01
29.60
28.58
23.41
14.90
4.00
-7.26
-16.66
-22.58
-23.69
-20.41
-13.47
-4.84
4.18
12.27
18.68
23.13
24.80
23.52
18.65
10.75
0.52
-10.13
-18.91
-24.12
-24.42
-20.39
-13.09
-4.75
3.27
9.85
14.73
18.09
19.40
18.43
14.18
6.85
-3.10
-13.70
-22.45
-27.41
-27.27
-22.87
-15.63
-8.12
-1.68
2.84
5.74
7.78
8.88
8.94
6.78
2.22
-4.77
-12.68
-19.44
-23.39
-23.35
-20.06
-14.65
-9.28
-4.96
-2.43
-1.40
-1.12
-1.45
-1.99
-3.29
-5.18
-7.85
-10.47
-12.09
-12.10
-10.00
-6.70
-3.04
-0.60
0.18
-1.00
-3.43
-5.92
-7.79
-8.06
-6.98
-4.52
-1.54
1.77
5.21
8.56
11.90
14.41
15.68
14.67
11.51
6.35
0.31
-5.09
-8.78
-9.53
-7.42
-2.48
4.14
11.76
19.43
26.21
31.44
33.85
32.96
28.05
19.85
9.27
-1.77
-11.11
-17.27
-18.91
-16.40
-10.26
-2.26
6.39
14.43
20.99
25.67
27.55
26.42
21.65
13.84
3.64
-7.13
-16.31
-22.23
-23.44
-20.25
-13.43
-5.01
3.65
11.26
17.20
21.38
23.07
22.06
17.49
9.73
-0.62
-11.53
-20.52
-25.70
-25.81
-21.70
-14.83
-7.73
-1.73
2.36
4.87
6.58
7.35
7.02
4.35
-0.87
-8.57
-17.08
-24.13
-27.91
-27.21
-22.95
-16.57
-10.47
-5.86
-3.43
-2.69
-2.64
-2.92
-3.07
-3.72
-4.83
-6.71
-8.62
-9.63
-9.15
-6.72
-3.33
0.15
2.14
2.28
0.45
-2.50
-5.31
-7.28
-7.56
-6.54
-4.25
-1.54
1.49
4.76
8.11
11.57
14.16
15.33
13.92
10.03
3.86
-3.31
-9.74
-14.10
-14.85
-11.96
-5.47
3.20
12.94
22.41
30.39
36.19
38.63
37.42
32.03
23.28
12.10
0.44
-9.52
-16.24
-18.39
-16.27
-10.45
-2.69
5.83
13.82
20.42
25.18
27.11
25.97
21.11
13.16
2.88
-7.80
-16.61
-21.93
-22.46
-18.86
-12.18
-4.65
2.44
8.12
12.28
15.24
16.56
15.97
12.38
5.82
-3.41
-13.47
-21.94
-26.94
-27.14
-23.35
-16.94
-10.35
-4.83
-1.13
1.09
2.61
3.34
3.19
1.08
-3.08
-9.26
-15.98
-21.36
-23.98
-22.91
-19.06
-13.57
-8.48
-4.67
-2.73
-2.29
-2.51
-3.07
-3.40
-3.88
-4.33
-5.08
-5.66
-5.50
-4.30
-1.72
1.35
4.25
5.59
5.12
2.72
-0.80
-4.17
-6.62
-7.15
-5.97
-3.08
0.62
4.84
9.22
13.40
17.26
19.85
20.72
18.87
14.54
7.97
0.42
-6.47
-11.48
-13.17
-11.47
-6.33
1.02
9.66
18.35
25.90
31.51
33.91
32.69
27.27
18.49
7.31
-4.25
-13.99
-20.33
-21.92
-19.11
-12.54
-4.09
4.93
13.17
19.75
24.30
25.98
24.62
19.64
11.69
1.49
-9.04
-17.66
-22.73
-22.99
-19.10
-12.15
-4.37
2.92
8.73
12.94
15.87
17.07
16.36
12.69
6.16
-2.92
-12.71
-20.84
-25.42
-25.14
-20.78
-13.70
-6.39
-0.17
4.14
6.84
8.68
9.54
9.31
6.81
1.87
-5.47
-13.62
-20.39
-24.06
-23.47
-19.56
-13.67
-8.20
-4.24
-2.42
-2.19
-2.46
-2.91
-3.12
-3.85
-5.18
-7.48
-10.01
-11.69
-11.79
-9.71
-6.38
-2.65
-0.17
0.61
-0.51
-2.74
-4.87
-6.29
-6.21
-5.12
-3.10
-1.00
1.15
3.42
5.86
8.69
11.08
12.52
11.81
8.91
3.86
-2.26
-7.94
-12.07
-13.28
-11.55
-6.79
-0.13
7.70
15.68
22.78
28.38
31.25
30.99
26.89
19.63
9.99
-0.24
-8.99
-14.83
-16.39
-13.90
-7.77
0.35
9.32
17.83
24.82
29.73
31.44
29.71
23.97
15.02
3.75
-7.84
-17.52
-23.67
-24.92
-21.67
-14.70
-6.02
3.03
11.11
17.51
22.01
23.83
22.80
18.18
10.52
0.47
-9.96
-18.38
-23.03
-22.63
-17.99
-10.47
-2.53
4.41
9.46
12.75
14.90
15.68
14.89
11.35
4.91
-4.26
-14.36
-22.90
-27.90
-27.97
-23.96
-17.35
-10.69
-5.28
-1.88
-0.02
1.19
1.81
1.84
0.23
-3.19
-8.49
-14.36
-19.05
-21.25
-20.03
-16.25
-10.92
-6.02
-2.35
-0.51
-0.11
-0.30
-0.80
-1.06
-1.57
-2.22
-3.45
-4.74
-5.42
-5.01
-3.05
-0.36
2.37
3.69
3.27
0.92
-2.57
-6.00
-8.61
-9.41
-8.59
-6.08
-2.70
1.33
5.69
9.98
14.03
16.80
17.77
15.92
11.53
4.95
-2.42
-8.82
-13.01
-13.64
-10.83
-4.77
3.11
11.86
20.32
27.46
32.72
34.99
33.93
28.93
20.75
10.22
-0.81
-10.29
-16.79
-18.96
-17.03
-11.35
-3.48
5.53
14.36
21.90
27.44
29.74
28.46
23.00
14.21
3.06
-8.37
-17.80
-23.61
-24.50
-20.98
-13.93
-5.41
3.22
10.73
16.55
20.59
22.19
21.21
16.88
9.62
-0.06
-10.34
-18.96
-24.17
-24.60
-20.84
-13.95
-6.15
1.24
7.23
11.69
14.88
16.31
15.65
11.78
4.77
-4.95
-15.38
-23.95
-28.72
-28.43
-24.05
-17.13
-10.28
-4.82
-1.52
0.03
0.77
0.86
0.52
-1.11
-4.06
-8.47
-13.23
-16.83
-18.17
-16.45
-12.56
-7.52
-3.26
-0.48
0.33
-0.25
-1.21
-2.14
-2.47
-2.75
-3.02
-3.79
-4.64
-4.95
-4.26
-2.15
0.56
3.15
4.20
3.42
0.70
-3.05
-6.52
-8.91
-9.31
-8.08
-5.35
-2.09
1.45
5.07
8.56
11.98
14.45
15.51
14.12
10.45
4.77
-1.67
-7.27
-10.99
-11.68
-9.55
-4.76
1.53
8.64
15.74
22.03
27.01
29.53
29.17
25.17
18.14
8.78
-1.19
-9.82
-15.74
-17.61
-15.65
-10.19
-2.76
5.60
13.70
20.57
25.63
27.79
26.72
21.77
13.66
3.19
-7.71
-16.87
-22.72
-23.87
-20.67
-13.79
-5.17
3.91
12.10
18.64
23.29
25.28
24.50
20.27
13.10
3.56
-6.51
-14.87
-19.83
-20.10
-16.42
-10.01
-3.27
2.48
6.40
8.73
10.23
10.84
10.47
7.89
2.77
-4.99
-13.83
-21.38
-25.57
-24.90
-20.18
-12.96
-6.02
-0.91
1.56
2.02
1.76
1.33
1.18
0.47
-0.91
-3.15
-5.10
-5.32
-3.07
1.67
6.97
11.02
11.80
9.28
4.37
-0.88
-4.49
-5.93
-5.26
-4.08
-3.24
-3.60
-4.49
-4.88
-4.10
-1.91
0.32
1.38
-0.24
-4.34
-10.12
-15.71
-19.25
-20.06
-17.87
-13.87
-8.82
-3.92
0.70
5.04
9.03
12.64
14.82
14.96
12.03
6.39
-1.32
-9.41
-15.97
-19.80
-19.87
-16.68
-10.69
-3.34
4.57
12.21
18.87
24.10
26.79
26.47
22.32
14.88
4.86
-5.92
-15.29
-21.58
-23.22
-20.30
-13.28
-4.04
5.93
15.01
22.04
26.61
27.95
26.16
20.82
12.63
2.18
-8.83
-18.23
-24.23
-25.16
-21.21
-13.15
-3.31
6.51
14.64
20.32
23.61
24.22
22.40
17.57
10.05
0.12
-10.53
-19.54
-24.85
-24.76
-19.75
-11.14
-1.74
6.53
12.34
15.68
17.41
17.69
16.72
13.46
7.64
-0.88
-10.58
-19.10
-24.37
-24.77
-20.91
-14.13
-7.05
-1.16
2.57
4.50
5.61
6.11
6.22
4.94
2.02
-2.88
-8.72
-13.95
-17.22
-17.41
-15.02
-10.81
-6.54
-3.05
-1.08
-0.49
-0.65
-1.42
-2.30
-3.73
-5.46
-7.74
-9.93
-11.23
-11.09
-8.98
-5.70
-1.97
0.67
1.77
0.98
-1.05
-3.21
-4.84
-5.00
-3.96
-1.68
0.99
3.88
6.83
9.68
12.57
14.69
15.68
14.51
11.30
6.16
0.18
-5.23
-9.11
-10.32
-8.99
-5.11
0.33
6.82
13.63
19.92
25.07
27.74
27.32
23.03
15.57
5.85
-4.23
-12.69
-18.23
-19.69
-17.39
-11.67
-3.92
4.94
13.76
21.43
27.15
29.61
28.35
22.78
13.76
2.30
-9.48
-19.24
-25.30
-26.22
-22.40
-14.65
-5.14
4.55
12.91
19.13
23.13
24.44
23.20
18.87
11.92
2.78
-6.90
-14.97
-19.74
-19.90
-16.08
-9.48
-2.44
3.69
8.08
10.90
12.80
13.57
13.00
9.87
3.97
-4.59
-14.05
-21.93
-26.19
-25.41
-20.40
-12.71
-5.03
1.14
4.97
6.90
7.96
8.31
7.99
5.87
1.70
-4.68
-11.83
-17.73
-20.80
-19.94
-16.10
-10.63
-5.81
-2.70
-1.81
-2.48
-3.47
-4.28
-4.36
-4.41
-4.64
-5.66
-7.00
-7.86
-7.63
-5.71
-2.91
0.04
1.59
1.35
-0.84
-4.09
-7.06
-8.97
-8.96
-7.50
-4.80
-1.82
1.26
4.42
7.61
10.98
13.61
14.91
13.68
9.97
4.07
-2.65
-8.39
-11.96
-12.16
-9.31
-3.74
3.13
10.49
17.49
23.41
27.95
30.10
29.52
25.42
18.35
8.96
-1.06
-9.72
-15.65
-17.56
-15.70
-10.45
-3.33
4.71
12.58
19.40
24.65
27.20
26.67
22.32
14.80
4.86
-5.59
-14.40
-20.04
-21.20
-18.33
-12.16
-4.58
3.17
9.97
15.23
18.88
20.26
19.26
15.16
8.41
-0.49
-9.80
-17.41
-21.74
-21.53
-17.38
-10.28
-2.38
5.08
11.10
15.48
18.45
19.56
18.62
14.62
7.69
-1.85
-12.13
-20.68
-25.52
-25.26
-20.75
-13.55
-6.39
-0.79
2.45
3.84
4.45
4.46
3.88
1.48
-3.10
-9.98
-17.63
-23.80
-26.71
-25.16
-20.15
-13.21
-6.88
-2.36
-0.23
0.22
0.19
0.03
0.05
-0.69
-2.37
-5.34
-8.70
-11.16
-11.80
-9.95
-6.55
-2.56
0.25
1.37
0.52
-1.54
-3.62
-5.12
-5.25
-4.46
-2.84
-1.19
0.50
2.35
4.44
7.05
9.36
10.88
10.41
7.92
3.51
-1.74
-6.41
-9.64
-10.47
-9.26
-6.09
-1.91
3.01
8.33
13.57
18.39
21.50
22.21
19.47
13.73
5.68
-2.92
-10.04
-14.38
-14.75
-11.52
-5.15
2.82
11.41
19.58
26.44
31.50
33.66
32.57
27.55
19.34
8.81
-2.05
-11.05
-16.70
-17.77
-14.80
-8.53
-0.84
7.08
14.12
19.66
23.53
24.95
23.73
19.13
11.63
1.82
-8.47
-17.03
-22.19
-22.63
-18.96
-12.23
-4.66
2.39
7.89
11.71
14.23
15.12
14.30
10.82
4.73
-3.77
-13.00
-20.67
-24.89
-24.27
-19.54
-12.06
-4.41
2.01
6.36
9.00
10.77
11.60
11.27
8.44
2.80
-5.61
-15.00
-22.80
-26.96
-26.14
-21.32
-14.18
-7.48
-2.60
-0.22
0.35
0.36
0.19
0.10
-0.93
-3.19
-7.05
-11.54
-15.19
-16.87
-15.68
-12.40
-7.90
-3.97
-1.27
-0.28
-0.52
-1.05
-1.55
-1.47
-1.37
-1.30
-1.82
-2.57
-2.96
-2.51
-0.65
1.94
4.70
6.23
6.18
4.33
1.36
-1.54
-3.74
-4.40
-3.86
-2.13
-0.01
2.42
5.07
7.79
10.63
12.67
13.46
11.93
8.25
2.68
-3.62
-9.15
-12.99
-14.07
-12.64
-8.79
-3.57
2.54
8.90
14.81
19.82
22.70
22.89
19.52
13.10
4.32
-5.09
-13.14
-18.42
-19.58
-16.77
-10.30
-1.70
7.92
17.22
25.02
30.64
32.95
31.67
26.32
17.77
6.96
-4.14
-13.41
-19.41
-20.88
-18.22
-12.03
-4.06
4.54
12.54
19.08
23.72
25.48
24.12
19.04
10.94
0.62
-9.99
-18.70
-23.97
-24.59
-21.18
-14.66
-7.05
0.44
6.80
11.68
15.18
16.73
16.13
12.52
6.16
-2.55
-11.83
-19.38
-23.40
-22.48
-17.25
-8.93
0.02
8.09
14.15
18.11
20.46
20.99
19.65
15.44
8.39
-1.25
-11.66
-20.32
-25.19
-24.78
-19.89
-12.01
-3.88
2.90
7.37
9.82
11.13
11.39
10.57
7.52
1.99
-6.09
-15.08
-22.64
-26.77
-26.01
-21.11
-13.46
-5.66
0.85
5.19
7.69
9.23
9.85
9.58
7.30
2.80
-3.97
-11.50
-17.66
-20.74
-19.53
-14.97
-8.48
-2.52
1.67
3.45
3.41
2.78
2.09
1.85
1.34
0.37
-1.61
-4.04
-5.95
-6.58
-5.20
-2.55
0.66
2.88
3.66
2.75
0.78
-1.20
-2.82
-3.49
-3.77
-3.67
-3.77
-3.76
-3.21
-1.87
0.56
3.22
5.51
6.12
4.93
1.89
-2.09
-5.70
-8.18
-8.57
-7.21
-4.17
-0.43
3.70
7.90
11.80
15.30
17.41
17.65
15.09
10.07
3.11
-4.34
-10.57
-14.58
-15.39
-13.45
-9.03
-3.36
3.01
9.41
15.22
20.06
22.84
23.09
19.99
14.04
5.82
-3.11
-10.91
-16.28
-17.88
-15.85
-10.40
-2.92
5.59
13.94
21.05
26.28
28.46
27.23
22.02
13.63
2.97
-7.97
-16.99
-22.59
-23.51
-20.22
-13.43
-5.04
3.74
11.70
18.10
22.63
24.43
23.27
18.47
10.65
0.54
-9.94
-18.53
-23.61
-23.88
-19.91
-12.65
-4.22
4.04
10.96
16.09
19.51
20.67
19.49
15.20
8.13
-1.26
-11.16
-19.25
-23.73
-23.24
-18.47
-10.69
-2.37
5.03
10.48
14.03
16.29
17.11
16.44
13.21
7.34
-1.08
-10.37
-18.15
-22.49
-21.94
-17.25
-9.84
-2.28
3.99
8.11
10.43
11.79
12.17
11.46
8.47
2.96
-5.07
-13.95
-21.37
-25.46
-24.95
-20.72
-14.25
-8.04
-3.35
-0.86
-0.01
0.27
0.25
0.15
-1.00
-3.39
-7.36
-11.90
-15.57
-17.25
-16.02
-12.60
-7.85
-3.55
-0.42
0.95
0.97
0.49
-0.14
-0.30
-0.41
-0.40
-0.78
-1.23
-1.26
-0.54
1.37
3.74
6.00
6.82
5.98
3.32
-0.35
-3.80
-6.36
-7.18
-6.61
-4.68
-2.22
0.68
3.90
7.27
10.78
13.46
14.79
13.71
10.39
5.09
-0.96
-6.23
-9.68
-10.12
-7.69
-2.44
4.49
12.36
20.20
27.03
32.23
34.59
33.73
29.04
21.28
11.29
0.86
-8.04
-14.11
-16.10
-14.30
-9.09
-2.00
5.92
13.51
19.83
24.42
26.32
25.28
20.60
12.79
2.40
-8.80
-18.57
-25.02
-26.46
-23.10
-15.81
-6.94
1.77
8.82
13.63
16.42
16.90
15.17
10.51
3.19
-6.47
-16.71
-25.25
-30.27
-30.42
-26.43
-19.57
-12.26
-5.79
-0.94
2.56
5.43
7.45
8.39
6.96
2.88
-3.94
-11.95
-18.96
-23.15
-23.09
-19.37
-13.03
-6.17
0.19
5.22
8.92
11.41
11.97
10.28
5.57
-1.34
-9.20
-15.53
-18.20
-16.62
-11.52
-5.66
-1.42
-0.87
-3.64
-8.39
-12.80
-14.82
-13.98
-10.38
-5.61
-0.63
3.27
6.01
7.86
9.15
10.49
11.49
12.09
11.36
9.24
5.53
0.92
-3.39
-6.57
-7.53
-6.57
-3.94
-0.92
1.86
4.13
5.94
7.90
9.64
10.94
10.51
7.96
2.96
-3.56
-9.84
-14.30
-15.16
-12.28
-5.89
2.34
11.09
19.06
25.31
29.62
31.22
30.02
25.38
17.81
7.86
-2.81
-12.17
-18.68
-20.84
-18.80
-12.96
-5.02
3.84
12.28
19.29
24.34
26.39
25.20
20.19
12.12
1.85
-8.69
-17.33
-22.59
-23.21
-19.70
-12.84
-4.57
3.86
11.27
17.05
21.09
22.74
21.89
17.83
11.01
1.88
-7.83
-15.99
-20.96
-21.40
-17.88
-11.41
-4.21
2.43
7.52
11.02
13.36
14.27
13.64
10.44
4.66
-3.53
-12.44
-19.73
-23.46
-22.20
-16.70
-8.37
0.12
7.25
12.08
14.91
16.57
17.06
16.27
12.98
6.92
-1.88
-11.64
-19.87
-24.50
-24.16
-19.78
-13.01
-6.58
-1.90
0.35
0.82
0.74
0.45
0.14
-1.25
-4.07
-8.66
-13.90
-18.11
-19.94
-18.39
-14.31
-8.84
-4.08
-0.91
0.14
-0.28
-1.04
-1.65
-1.56
-1.43
-1.40
-2.11
-3.13
-3.74
-3.40
-1.53
1.07
3.70
4.89
4.30
1.82
-1.68
-4.86
-7.03
-7.36
-6.34
-4.18
-1.79
0.70
3.31
6.00
8.93
11.22
12.31
11.06
7.56
2.05
-4.20
-9.56
-13.04
-13.56
-11.47
-7.00
-1.32
4.97
11.25
16.91
21.64
24.35
24.57
21.42
15.32
6.86
-2.33
-10.28
-15.57
-16.78
-14.09
-7.81
0.46
9.59
18.29
25.49
30.63
32.65
31.28
25.98
17.55
6.90
-4.01
-13.03
-18.71
-19.91
-17.17
-11.23
-3.91
3.73
10.67
16.34
20.54
22.42
21.71
17.64
10.67
1.35
-8.54
-16.82
-21.89
-22.41
-18.92
-12.36
-4.89
2.22
7.92
12.04
14.88
16.02
15.31
11.76
5.44
-3.39
-12.98
-21.00
-25.57
-25.30
-20.88
-13.61
-5.96
0.69
5.45
8.51
10.50
11.21
10.46
7.05
0.89
-7.82
-17.19
-24.72
-28.43
-27.10
-21.79
-14.21
-7.13
-1.97
0.55
1.05
0.80
0.31
0.02
-0.85
-2.47
-5.23
-8.36
-10.69
-11.38
-9.76
-6.70
-3.03
-0.41
0.71
0.06
-1.68
-3.44
-4.77
-5.03
-4.71
-3.83
-3.02
-2.08
-0.71
1.25
4.07
6.83
8.91
8.99
6.92
2.69
-2.63
-7.52
-10.85
-11.31
-8.98
-3.93
2.62
9.90
17.06
23.27
28.12
30.47
29.88
25.55
18.09
8.25
-2.12
-10.95
-16.82
-18.42
-16.02
-9.99
-1.87
7.31
16.31
24.03
29.74
32.18
30.92
25.39
16.43
5.08
-6.52
-16.07
-21.96
-22.92
-19.51
-12.60
-4.25
4.21
11.57
17.25
21.16
22.64
21.56
17.18
9.97
0.45
-9.55
-17.82
-22.69
-22.88
-18.98
-12.04
-4.24
3.15
9.12
13.53
16.63
17.94
17.23
13.48
6.80
-2.45
-12.42
-20.69
-25.41
-25.24
-21.00
-14.07
-6.95
-1.00
2.98
5.31
6.79
7.38
7.00
4.52
-0.27
-7.38
-15.24
-21.72
-25.11
-24.28
-20.13
-14.06
-8.43
-4.33
-2.34
-1.87
-1.82
-1.87
-1.67
-2.06
-3.18
-5.45
-8.07
-9.96
-10.29
-8.43
-5.25
-1.61
0.83
1.56
0.33
-2.10
-4.49
-6.17
-6.30
-5.26
-3.16
-0.89
1.42
3.77
6.17
8.91
11.25
12.78
12.33
9.85
5.32
-0.25
-5.40
-9.06
-9.96
-8.16
-3.67
2.40
9.40
16.49
22.80
27.81
30.24
29.59
25.02
17.17
6.91
-3.81
-12.76
-18.43
-19.51
-16.46
-9.93
-1.76
6.84
14.72
21.06
25.53
27.20
25.82
20.74
12.62
2.29
-8.30
-16.98
-22.27
-22.98
-19.67
-13.11
-5.17
3.05
10.51
16.64
21.25
23.49
23.01
18.97
11.78
2.09
-8.16
-16.58
-21.40
-21.28
-16.89
-9.42
-1.30
6.05
11.60
15.34
17.86
19.03
18.84
16.20
10.90
2.86
-6.39
-14.48
-19.23
-18.87
-13.88
-5.66
2.99
10.24
14.99
17.49
18.77
19.03
18.36
15.60
10.50
3.13
-4.65
-10.34
-12.21
-9.52
-4.00
2.25
6.71
8.93
9.50
9.93
11.24
12.56
12.48
8.85
1.48
-8.67
-18.76
-25.96
-28.94
-27.70
-24.34
-20.61
-18.23
-17.03
-16.40
-15.41
-13.63
-11.98
-11.25
-12.72
-16.20
-21.20
-25.95
-28.62
-28.09
-23.75
-16.76
-8.52
-1.37
3.45
5.10
4.19
2.36
1.09
2.02
5.07
9.70
13.99
16.57
16.82
15.08
13.06
11.90
12.57
14.02
14.58
11.76
4.10
-8.15
-23.37
-38.31
-50.43
-57.40
-58.64
-54.37
-46.07
-36.60
-29.33
-28.33
-35.75
-51.88
-73.36
-95.02
-110.89
-116.10
-108.97
-90.42
-64.81
-37.34
-13.70
2.77
11.46
14.57
16.33
19.99
27.24
36.30
44.27
48.00
46.95
43.39
40.81
42.71
49.54
59.58
68.93
74.62
75.43
72.46
68.22
64.11
60.45
55.27
46.74
33.55
16.92
0.12
-12.97
-18.62
-15.89
-5.65
8.63
23.51
35.81
43.83
47.42
46.47
41.64
32.70
20.29
4.89
-11.67
-26.78
-37.94
-42.64
-40.35
-31.38
-17.97
-2.16
13.55
27.30
38.01
44.52
46.74
44.41
38.58
30.20
21.23
13.63
8.76
7.78
10.24
15.59
22.13
28.92
34.73
38.83
40.79
39.81
35.82
28.44
18.60
7.16
-3.97
-12.94
-18.69
-20.65
-19.92
-17.52
-15.07
-12.78
-10.74
-8.72
-6.76
-6.17
-7.98
-13.49
-22.18
-33.01
-43.75
-52.33
-57.66
-59.01
-56.90
-51.45
-43.48
-33.18
-21.67
-10.52
-1.72
2.17
-0.08
-8.95
-22.59
-38.59
-53.74
-65.29
-71.84
-72.69
-68.79
-61.21
-52.34
-44.23
-39.14
-37.73
-38.35
-37.88
-32.07
-19.02
0.66
22.57
41.72
54.32
59.40
59.23
56.45
53.48
50.31
46.48
41.12
34.48
27.79
21.78
16.96
12.23
7.00
0.56
-6.39
-12.54
-16.72
-17.98
-16.97
-14.40
-11.93
-10.25
-10.21
-11.85
-14.70
-18.36
-21.55
-23.64
-23.52
-21.31
-17.04
-11.52
-5.77
-0.41
3.52
5.92
6.20
4.64
0.98
-4.28
-10.00
-14.63
-15.63
-11.56
-1.51
13.07
30.08
46.44
59.35
67.06
68.13
62.63
50.73
34.08
14.43
-5.44
-22.48
-34.16
-38.11
-33.92
-22.00
-4.80
15.14
34.53
50.61
61.64
66.19
64.48
56.83
44.91
30.14
14.77
1.10
-8.96
-13.48
-12.09
-4.90
6.25
19.62
32.72
43.44
50.32
51.99
48.49
39.98
28.12
14.52
1.69
-8.12
-13.74
-14.70
-12.38
-8.17
-3.98
-0.19
3.20
6.59
10.12
12.53
12.64
8.85
1.34
-9.06
-20.00
-29.03
-34.50
-35.23
-31.72
-24.43
-14.89
-3.93
7.06
16.89
24.40
28.07
27.37
21.84
12.69
1.32
-9.82
-18.39
-23.03
-22.97
-19.28
-13.07
-6.25
0.47
6.46
11.50
15.39
16.99
15.62
10.27
1.57
-9.49
-20.66
-29.70
-35.17
-36.06
-32.99
-26.57
-18.36
-9.14
-0.10
7.74
13.45
15.62
13.82
7.63
-1.70
-12.83
-23.43
-31.53
-36.02
-36.38
-33.63
-28.68
-23.21
-17.85
-13.47
-10.46
-9.01
-9.67
-12.13
-16.39
-21.33
-26.34
-30.16
-32.02
-31.70
-29.17
-25.54
-21.54
-18.58
-17.13
-17.91
-20.82
-25.02
-29.35
-31.54
-30.19
-24.03
-13.74
-0.43
13.76
26.51
36.04
40.38
38.91
31.29
18.98
3.77
-11.55
-24.09
-31.75
-32.64
-26.68
-14.30
2.33
21.04
38.86
53.04
61.68
63.11
57.42
45.13
28.46
9.49
-8.87
-23.94
-33.77
-36.55
-32.18
-21.00
-5.05
13.63
32.19
47.90
58.75
62.88
60.07
50.52
36.19
19.04
2.01
-12.09
-21.18
-23.51
-19.15
-8.70
5.61
21.87
37.66
50.99
60.60
65.13
64.40
58.18
47.51
33.35
17.66
2.69
-9.40
-16.22
-16.79
-10.67
0.50
14.76
29.09
40.92
48.55
50.85
48.36
41.71
32.79
23.18
15.21
10.73
10.25
13.10
16.48
17.76
14.68
7.94
-0.28
-6.94
-9.98
-10.06
-9.18
-10.42
-15.00
-22.81
-31.48
-38.25
-41.09
-38.83
-32.06
-21.57
-8.97
4.65
18.00
30.26
40.66
48.16
52.06
51.54
47.05
39.73
32.03
26.37
23.67
23.09
21.75
16.98
7.11
-7.19
-24.66
-44.98
-69.89
-102.82
-145.50
-196.25
-247.61
-289.45
-312.06
-310.56
-286.76
-247.31
-201.14
-155.32
-114.73
-81.78
-58.27
-45.07
-40.92
-41.89
-41.13
-32.36
-12.44
15.77
45.32
68.41
80.55
82.84
80.01
77.80
78.86
82.50
85.38
84.63
79.76
72.51
66.35
63.32
64.02
66.43
68.05
66.96
62.90
57.79
53.61
52.22
53.20
55.21
55.70
52.87
46.60
37.90
29.36
22.79
19.70
19.65
21.86
24.80
27.08
28.17
27.35
24.92
20.65
15.03
7.89
-0.33
-8.64
-15.66
-18.79
-16.36
-7.09
7.86
26.44
45.29
61.03
71.31
74.25
69.84
58.46
42.10
22.74
3.14
-13.92
-26.36
-32.19
-31.18
-23.61
-11.51
3.08
17.33
28.67
35.31
35.65
29.74
17.97
2.30
-15.43
-32.55
-46.54
-55.51
-57.67
-52.85
-41.32
-25.06
-6.05
12.93
29.26
41.01
46.40
45.20
37.52
25.01
9.25
-7.33
-22.35
-33.93
-40.16
-40.60
-35.15
-25.35
-12.72
0.41
11.86
20.09
23.63
22.43
16.57
7.53
-3.43
-14.26
-23.06
-28.52
-29.53
-26.42
-19.64
-10.84
-1.01
8.44
16.40
22.09
24.26
22.59
16.63
7.46
-3.82
-15.11
-24.34
-30.13
-31.30
-28.16
-21.09
-11.64
-0.84
9.81
18.97
25.61
28.35
26.83
20.72
11.21
-0.49
-12.18
-21.73
-27.70
-28.95
-25.84
-18.90
-9.78
0.48
10.41
18.82
24.81
27.09
25.32
19.11
9.57
-2.12
-13.78
-23.32
-29.36
-30.80
-28.10
-21.78
-13.46
-4.10
4.92
12.48
17.68
19.25
16.91
10.36
0.84
-10.41
-21.21
-29.66
-34.71
-35.68
-33.44
-28.72
-23.07
-17.12
-11.85
-7.82
-5.47
-5.63
-8.23
-13.40
-19.91
-26.82
-32.37
-35.34
-35.26
-32.09
-27.21
-21.68
-17.19
-14.29
-13.66
-15.12
-17.83
-20.69
-21.54
-19.06
-12.02
-1.15
12.35
26.24
38.10
46.06
48.20
44.01
33.29
17.69
-0.87
-19.44
-35.02
-45.39
-48.57
-44.45
-33.40
-17.60
0.77
18.77
33.63
43.45
46.50
42.80
32.76
18.44
1.81
-14.33
-27.37
-35.39
-36.64
-31.06
-19.01
-2.56
16.26
34.59
49.77
59.85
63.09
59.39
49.07
34.14
16.59
-0.75
-15.14
-24.50
-26.95
-22.29
-10.88
5.19
23.83
42.10
57.38
67.75
71.55
68.65
59.22
44.95
27.43
9.11
-7.56
-20.68
-28.34
-30.20
-26.27
-18.19
-7.41
3.84
13.62
20.51
23.11
21.36
15.31
6.42
-4.10
-14.30
-22.56
-27.86
-29.32
-27.28
-21.95
-14.50
-5.52
3.72
12.18
18.46
21.18
19.73
13.71
4.47
-6.46
-16.35
-22.97
-24.60
-20.79
-12.79
-2.60
6.55
12.50
13.47
9.65
2.27
-6.61
-14.61
-20.25
-22.09
-20.17
-14.42
-5.79
4.73
15.72
25.41
32.35
34.86
32.58
25.40
14.90
2.70
-8.86
-17.68
-22.73
-23.24
-20.02
-13.74
-5.98
2.60
10.97
18.28
23.80
26.07
24.53
18.49
8.96
-2.83
-14.57
-24.02
-29.79
-30.88
-27.92
-21.56
-13.44
-4.36
4.47
12.09
17.64
19.65
17.60
10.90
0.71
-11.65
-23.73
-33.31
-39.06
-40.18
-37.50
-31.84
-24.91
-17.54
-10.90
-5.79
-2.72
-2.48
-4.81
-9.60
-15.53
-21.70
-26.60
-29.22
-29.23
-26.58
-22.48
-17.83
-14.19
-12.05
-12.14
-14.28
-17.68
-21.26
-22.97
-21.56
-15.84
-6.46
5.61
18.35
29.58
37.55
40.30
37.20
27.89
13.86
-3.09
-20.17
-34.47
-43.86
-46.39
-41.86
-30.61
-14.71
3.67
21.59
36.24
45.67
48.13
43.65
32.67
17.33
-0.34
-17.47
-31.42
-40.27
-42.26
-37.34
-25.87
-9.93
8.47
26.46
41.36
51.22
54.26
50.38
39.96
25.05
7.71
-9.17
-22.85
-31.30
-32.73
-27.05
-14.68
2.21
21.50
40.28
55.86
66.31
69.91
66.53
56.39
41.35
23.19
4.60
-11.83
-24.06
-30.14
-29.75
-23.00
-11.69
2.45
16.92
29.46
38.41
42.22
40.72
33.92
23.33
10.36
-2.71
-13.75
-21.26
-24.02
-22.38
-16.83
-9.07
-0.10
8.76
16.43
22.16
24.65
23.44
17.97
9.21
-1.79
-12.89
-21.97
-27.61
-28.65
-25.46
-18.51
-9.37
0.97
11.09
19.80
26.15
28.81
27.38
21.47
12.19
0.75
-10.61
-19.73
-25.22
-26.05
-22.81
-16.20
-7.93
1.09
9.68
16.96
22.28
24.36
22.76
16.90
7.75
-3.59
-14.90
-24.08
-29.76
-30.88
-27.97
-21.56
-13.21
-3.75
5.57
13.68
19.62
21.91
19.97
13.28
3.03
-9.39
-21.46
-30.91
-36.44
-37.32
-34.52
-28.98
-22.46
-15.73
-9.81
-5.30
-2.58
-2.40
-4.54
-8.98
-14.49
-20.25
-24.76
-27.11
-27.01
-24.50
-20.90
-17.09
-14.59
-13.83
-15.40
-19.00
-23.68
-28.24
-30.48
-29.09
-22.89
-12.61
0.58
14.47
26.68
35.38
38.56
35.62
26.26
12.06
-5.08
-22.27
-36.52
-45.66
-47.77
-42.74
-30.97
-14.62
4.16
22.43
37.45
47.28
50.21
46.25
35.85
21.11
4.07
-12.44
-25.78
-34.01
-35.38
-29.81
-17.68
-1.05
18.04
36.74
52.40
63.05
66.91
63.83
54.03
39.40
21.78
3.89
-11.60
-22.66
-27.33
-25.27
-16.61
-3.23
13.02
29.41
43.48
53.43
57.66
56.05
48.69
37.19
22.97
8.35
-4.49
-13.95
-18.59
-18.53
-14.11
-6.99
1.70
10.40
17.85
23.15
25.05
23.23
17.28
8.24
-2.83
-13.87
-22.83
-28.37
-29.37
-26.24
-19.49
-10.73
-0.89
8.66
16.86
22.83
25.30
23.85
18.04
8.95
-2.23
-13.30
-22.13
-27.40
-28.14
-24.98
-18.59
-10.61
-1.82
6.67
13.98
19.37
21.48
19.74
13.55
3.97
-7.74
-19.23
-28.32
-33.73
-34.62
-31.77
-25.89
-18.56
-10.44
-2.59
4.19
9.13
10.88
8.98
2.93
-6.12
-16.90
-27.06
-34.69
-38.68
-38.57
-35.52
-30.58
-25.58
-21.37
-19.04
-18.90
-20.67
-23.76
-26.35
-27.19
-24.76
-19.16
-10.79
-1.03
8.35
15.92
19.81
19.26
13.58
3.74
-9.06
-22.57
-34.26
-42.06
-43.85
-39.12
-27.90
-12.13
6.07
23.77
38.19
47.47
49.95
45.64
34.90
19.73
2.09
-15.20
-29.42
-38.49
-40.53
-35.42
-23.53
-7.01
12.03
30.66
46.22
56.82
60.79
58.08
49.00
35.44
19.25
3.10
-10.38
-19.17
-21.30
-16.48
-4.92
11.34
30.20
48.73
64.22
74.79
78.77
76.12
67.07
53.39
36.70
19.49
4.09
-7.78
-14.65
-16.68
-14.26
-9.05
-2.09
5.17
11.59
16.34
18.10
16.39
10.66
1.86
-8.93
-19.59
-28.04
-32.96
-33.40
-29.94
-23.24
-14.92
-5.76
3.12
10.88
16.79
19.53
18.56
13.22
4.45
-6.64
-17.83
-26.93
-32.45
-33.25
-29.74
-22.43
-12.95
-2.30
8.07
16.92
23.30
25.84
24.19
17.97
8.44
-3.12
-14.41
-23.32
-28.63
-29.51
-26.76
-21.15
-14.27
-6.74
0.58
7.04
11.97
13.87
11.94
5.30
-5.12
-18.01
-30.75
-40.92
-46.96
-47.98
-44.82
-38.38
-30.53
-22.42
-15.58
-10.98
-9.03
-9.81
-12.06
-14.76
-16.23
-16.01
-13.67
-9.59
-4.64
0.48
4.26
5.97
4.55
0.30
-6.41
-14.31
-21.73
-27.33
-29.34
-27.25
-20.65
-10.65
1.64
14.31
25.31
33.06
35.70
32.72
23.92
10.82
-4.89
-20.61
-33.74
-42.33
-44.50
-39.97
-28.87
-13.12
5.30
23.49
38.66
48.79
52.05
48.36
38.10
23.36
6.25
-10.35
-23.72
-31.87
-33.08
-27.32
-15.05
1.60
20.56
38.97
54.21
64.37
67.70
64.06
53.67
38.40
20.07
1.41
-14.93
-26.87
-32.43
-31.25
-23.42
-10.79
4.77
20.57
34.12
43.66
47.58
45.77
38.36
26.97
13.08
-1.03
-13.13
-21.65
-25.16
-23.76
-17.84
-9.07
1.32
11.70
20.67
27.28
30.18
29.08
23.57
14.76
3.76
-7.30
-16.38
-22.09
-23.30
-20.44
-14.00
-5.60
3.84
13.00
20.84
26.52
28.75
27.12
21.15
11.87
0.44
-10.94
-20.13
-25.75
-26.74
-23.64
-17.04
-8.61
0.75
9.80
17.54
23.18
25.39
23.71
17.64
8.24
-3.27
-14.64
-23.71
-29.17
-30.11
-27.20
-21.11
-13.44
-4.94
3.31
10.43
15.64
17.55
15.63
9.33
-0.21
-11.69
-22.73
-31.26
-36.11
-36.63
-33.81
-28.49
-22.33
-16.03
-10.63
-6.71
-4.61
-4.88
-7.05
-10.90
-15.12
-19.02
-21.42
-21.81
-20.25
-17.06
-13.67
-10.97
-10.35
-12.04
-16.30
-22.49
-29.28
-35.12
-37.57
-35.27
-27.20
-14.48
1.23
17.22
30.81
40.12
43.35
40.21
30.70
16.50
-0.54
-17.60
-31.77
-40.84
-42.82
-37.59
-25.57
-9.03
9.80
27.91
42.60
52.00
54.50
50.17
39.45
24.36
6.83
-10.38
-24.65
-33.97
-36.43
-31.83
-20.42
-4.25
14.58
33.15
48.76
59.46
63.54
60.96
51.99
38.52
22.36
6.16
-7.56
-16.88
-20.09
-17.14
-8.39
4.23
19.00
33.59
45.94
54.58
57.98
55.90
48.22
36.38
21.80
6.84
-6.20
-15.73
-20.44
-20.61
-16.71
-10.38
-2.58
5.35
12.34
17.58
19.72
18.28
12.67
3.85
-7.06
-17.91
-26.54
-31.61
-32.09
-28.57
-21.70
-13.13
-3.72
5.36
13.23
19.14
21.78
20.66
15.18
6.31
-4.81
-15.95
-24.93
-30.32
-31.05
-27.67
-20.79
-12.05
-2.34
7.04
15.09
20.96
23.29
21.61
15.42
5.85
-5.83
-17.30
-26.41
-31.87
-32.82
-30.02
-24.18
-16.91
-8.89
-1.11
5.66
10.66
12.50
10.57
4.20
-5.54
-17.37
-28.83
-37.74
-42.75
-43.18
-40.00
-34.22
-27.70
-21.47
-16.82
-14.38
-14.20
-16.03
-18.42
-20.29
-20.10
-17.68
-13.00
-6.83
-0.35
5.55
9.38
10.53
8.16
2.81
-4.93
-13.58
-21.39
-27.00
-28.79
-26.44
-19.64
-9.57
2.70
15.33
26.37
34.25
37.12
34.48
26.10
13.52
-1.63
-16.76
-29.35
-37.51
-39.38
-34.69
-23.58
-7.92
10.29
28.17
42.91
52.48
55.05
50.54
39.33
23.57
5.39
-12.26
-26.59
-35.60
-37.50
-32.27
-20.35
-3.89
15.05
33.59
49.09
59.65
63.50
60.47
50.75
36.16
18.50
0.43
-15.43
-27.02
-32.36
-31.05
-23.16
-10.49
5.13
21.04
34.77
44.54
48.74
47.25
40.19
29.17
15.66
1.93
-9.86
-18.18
-21.68
-20.57
-15.24
-7.33
2.05
11.38
19.41
25.23
27.54
25.97
20.08
10.95
-0.35
-11.71
-21.06
-27.00
-28.34
-25.36
-18.45
-9.17
1.44
11.87
20.81
27.25
29.83
28.23
22.10
12.63
1.04
-10.47
-19.76
-25.43
-26.42
-23.22
-16.45
-7.80
1.74
10.88
18.64
24.26
26.49
24.94
19.09
9.93
-1.42
-12.82
-22.12
-27.92
-29.06
-25.98
-19.20
-10.33
-0.34
9.40
17.72
23.70
25.98
24.16
17.82
8.15
-3.59
-15.11
-24.30
-29.86
-30.90
-28.08
-22.03
-14.34
-5.74
2.68
10.05
15.53
17.67
15.84
9.40
-0.60
-12.85
-24.87
-34.39
-40.01
-40.90
-37.95
-32.04
-25.06
-18.07
-12.47
-9.08
-8.11
-9.54
-12.08
-14.76
-16.00
-15.48
-12.93
-8.85
-4.19
0.39
3.55
4.83
3.37
-0.36
-6.06
-12.66
-18.88
-23.83
-26.17
-25.60
-21.55
-14.68
-5.46
4.80
14.46
22.02
25.49
24.15
17.54
7.01
-5.96
-19.01
-29.81
-36.64
-37.75
-32.87
-22.06
-7.19
9.67
25.68
38.27
45.93
47.54
43.57
34.49
21.88
6.88
-8.55
-22.21
-31.99
-35.51
-32.05
-21.68
-6.59
10.75
27.19
40.08
47.89
49.32
44.52
33.65
18.16
-0.63
-20.39
-38.45
-52.31
-59.31
-58.44
-49.46
-34.32
-15.42
3.84
20.48
32.50
38.57
39.10
34.77
27.60
19.26
12.09
8.00
7.77
11.44
17.18
23.26
27.68
30.40
32.00
33.52
35.52
36.75
35.70
30.43
20.92
8.09
-5.47
-17.08
-25.00
-28.03
-26.57
-20.96
-12.48
-1.82
9.53
20.07
28.28
32.25
31.28
24.91
14.44
1.34
-11.87
-22.79
-29.70
-31.26
-27.77
-19.79
-9.21
2.61
13.87
23.15
29.52
31.81
29.93
23.66
14.19
2.61
-9.01
-18.65
-24.91
-26.58
-24.00
-17.63
-9.11
0.54
9.92
17.86
23.50
25.48
23.42
16.87
6.98
-5.04
-16.95
-26.67
-32.80
-34.25
-31.43
-24.74
-15.73
-5.42
4.57
12.91
18.57
20.41
18.53
13.02
5.35
-3.24
-10.76
-15.77
-17.62
-16.25
-13.14
-9.59
-7.43
-7.22
-9.46
-13.65
-18.72
-23.52
-26.04
-25.18
-19.84
-10.76
0.99
13.38
24.11
31.45
33.50
29.74
19.94
5.66
-11.29
-28.18
-42.33
-51.83
-55.00
-51.82
-42.54
-28.94
-12.64
3.96
18.44
28.86
33.23
31.15
22.68
9.76
-5.59
-20.49
-32.27
-39.08
-39.27
-32.84
-20.17
-3.26
15.94
34.62
50.09
60.32
63.46
59.36
48.38
32.64
14.27
-3.74
-18.60
-28.27
-30.96
-26.61
-15.63
-0.11
17.94
35.71
50.63
60.84
64.57
61.61
52.05
37.56
19.77
1.20
-15.62
-28.69
-36.01
-37.11
-31.94
-22.14
-9.33
4.08
15.88
24.48
28.40
27.57
22.03
13.24
2.47
-8.18
-16.77
-22.05
-23.01
-20.14
-14.08
-6.47
1.83
9.70
16.36
21.21
23.03
21.35
15.54
6.49
-4.74
-15.99
-25.15
-30.80
-31.81
-28.58
-21.55
-12.26
-1.66
8.79
17.87
24.53
27.36
25.96
19.92
10.41
-1.33
-13.04
-22.56
-28.47
-29.64
-26.51
-19.63
-10.67
-0.64
9.07
17.32
23.23
25.45
23.61
17.25
7.50
-4.40
-16.17
-25.68
-31.56
-32.85
-30.18
-24.22
-16.64
-8.34
-0.58
5.69
9.75
10.59
8.17
2.43
-5.33
-14.01
-21.74
-27.14
-29.62
-28.97
-26.34
-22.58
-19.13
-16.35
-14.77
-14.44
-15.15
-17.06
-19.50
-22.26
-24.30
-25.31
-24.57
-22.03
-18.14
-13.42
-9.33
-6.65
-6.52
-8.87
-13.74
-20.26
-26.99
-32.33
-33.91
-30.48
-21.21
-7.36
9.26
25.84
39.65
48.80
51.59
47.85
37.69
22.88
5.27
-12.29
-26.93
-36.41
-38.76
-33.85
-22.15
-5.94
12.50
30.16
44.34
53.24
55.30
50.62
39.68
24.46
6.88
-10.35
-24.60
-33.84
-36.10
-31.14
-19.21
-2.40
17.10
36.22
52.15
62.88
66.71
63.66
54.15
40.21
23.79
7.66
-5.59
-14.12
-16.42
-12.72
-3.63
8.79
22.94
36.76
48.46
56.73
59.98
57.74
49.67
37.04
21.29
4.93
-9.60
-20.53
-26.40
-27.34
-23.68
-16.98
-8.30
0.83
9.05
15.29
18.05
16.86
11.25
2.32
-8.75
-19.74
-28.51
-33.66
-34.13
-30.44
-23.23
-14.19
-4.28
5.24
13.40
19.44
22.11
20.99
15.53
6.72
-4.34
-15.47
-24.52
-30.03
-30.87
-27.47
-20.36
-11.21
-0.99
8.89
17.33
23.43
25.88
24.30
18.26
8.88
-2.62
-13.99
-23.11
-28.64
-29.64
-26.71
-20.52
-12.67
-3.96
4.50
11.84
17.26
19.34
17.46
10.95
0.83
-11.62
-23.94
-33.86
-39.93
-41.22
-38.50
-32.53
-25.08
-17.13
-10.03
-4.72
-1.79
-1.85
-4.41
-9.08
-14.37
-19.43
-22.99
-24.36
-23.55
-20.70
-17.05
-13.38
-10.96
-9.91
-10.46
-12.21
-14.49
-16.98
-18.70
-19.40
-18.27
-15.51
-10.97
-5.21
0.84
6.29
9.55
9.92
6.56
0.05
-9.07
-19.30
-28.76
-35.66
-37.70
-33.90
-23.72
-8.70
9.15
26.87
41.61
51.42
54.59
51.07
41.11
26.61
9.47
-7.48
-21.41
-30.17
-31.80
-26.18
-13.81
3.06
22.18
40.54
55.51
65.27
68.23
64.39
54.08
39.12
21.23
3.02
-12.95
-24.65
-30.04
-28.69
-20.68
-7.85
7.94
23.93
37.64
47.28
51.25
49.47
42.11
30.82
17.12
3.34
-8.32
-16.38
-19.61
-18.39
-13.27
-5.96
2.56
10.98
18.34
23.89
26.33
25.16
19.75
11.02
0.02
-11.06
-20.12
-25.74
-26.83
-23.79
-17.12
-8.38
1.54
11.30
19.76
25.98
28.57
27.09
21.06
11.60
-0.04
-11.57
-20.80
-26.30
-27.07
-23.72
-16.95
-8.48
0.76
9.59
17.12
22.66
24.95
23.53
17.80
8.70
-2.69
-14.20
-23.65
-29.58
-30.79
-27.64
-20.59
-11.26
-0.66
9.71
18.59
24.96
27.43
25.63
19.22
9.44
-2.41
-14.01
-23.23
-28.76
-29.72
-26.83
-20.81
-13.29
-5.03
2.91
9.77
14.82
16.74
14.98
8.89
-0.52
-12.09
-23.53
-32.74
-38.35
-39.39
-36.49
-30.25
-22.39
-13.96
-6.57
-1.34
1.19
0.68
-1.86
-5.62
-8.94
-11.22
-11.69
-10.33
-7.66
-4.15
-1.16
0.61
0.09
-2.49
-6.88
-12.17
-17.22
-21.40
-23.69
-24.00
-21.83
-17.72
-11.83
-5.00
1.67
7.24
10.18
9.96
5.93
-1.18
-10.74
-21.27
-30.93
-38.00
-40.20
-36.56
-26.56
-11.71
5.98
23.52
38.04
47.53
50.24
46.12
35.44
20.13
2.18
-15.55
-30.24
-39.72
-42.11
-37.29
-25.75
-9.73
8.54
26.10
40.25
49.16
51.21
46.44
35.28
19.76
1.84
-15.70
-30.19
-39.60
-42.02
-37.29
-25.72
-9.41
9.48
27.99
43.37
53.65
57.16
53.87
44.18
30.11
13.60
-2.55
-15.70
-23.88
-25.37
-20.15
-8.73
6.77
24.38
41.47
55.67
65.31
68.73
65.73
56.32
42.15
24.87
7.11
-8.60
-20.41
-26.73
-27.65
-23.52
-16.03
-6.38
3.75
12.92
20.05
23.65
23.24
18.32
9.97
-0.67
-11.37
-20.01
-25.20
-25.93
-22.74
-16.25
-8.12
0.81
9.40
16.81
22.32
24.66
23.30
17.64
8.61
-2.66
-13.96
-23.10
-28.62
-29.43
-26.02
-18.99
-9.98
0.06
9.79
18.15
24.28
26.84
25.42
19.53
10.26
-1.20
-12.59
-21.73
-27.23
-28.09
-24.91
-18.38
-10.18
-1.14
7.56
15.04
20.58
22.80
21.19
15.12
5.59
-6.22
-17.98
-27.49
-33.33
-34.46
-31.46
-24.92
-16.48
-7.06
1.96
9.48
14.64
16.26
14.24
8.42
0.13
-9.48
-18.41
-25.06
-28.61
-28.61
-26.03
-21.65
-17.01
-12.67
-9.46
-7.68
-7.36
-8.79
-11.36
-14.85
-18.14
-20.77
-21.83
-21.00
-18.54
-14.81
-11.26
-8.72
-8.46
-10.53
-15.05
-21.25
-27.80
-33.25
-35.35
-32.93
-25.05
-12.80
2.32
17.77
30.98
40.05
43.09
39.73
29.93
15.41
-1.91
-19.17
-33.46
-42.63
-44.76
-39.77
-28.06
-11.82
6.79
24.81
39.53
49.07
51.74
47.58
37.02
22.14
4.92
-11.84
-25.49
-34.06
-35.75
-30.41
-18.41
-1.82
17.29
35.97
51.54
62.03
65.69
62.43
52.59
38.12
20.94
3.83
-10.59
-20.32
-23.56
-20.17
-10.47
3.56
20.07
36.44
50.35
60.06
63.93
61.73
53.45
40.66
24.88
8.55
-6.00
-17.05
-23.08
-24.13
-20.46
-13.67
-4.89
4.21
12.22
18.08
20.38
18.75
12.80
3.67
-7.49
-18.53
-27.41
-32.78
-33.54
-30.15
-23.11
-14.06
-3.95
5.90
14.36
20.60
23.29
22.01
16.29
7.19
-4.12
-15.45
-24.64
-30.25
-31.11
-27.63
-20.31
-10.81
-0.16
10.17
18.99
25.37
28.02
26.59
20.70
11.45
0.01
-11.41
-20.70
-26.41
-27.42
-24.20
-17.31
-8.45
1.37
10.82
18.83
24.59
26.83
25.18
19.16
9.84
-1.64
-13.08
-22.33
-28.01
-29.06
-26.01
-19.44
-11.02
-1.63
7.46
15.24
20.87
23.01
21.18
14.87
5.16
-6.75
-18.59
-28.23
-34.28
-35.68
-32.94
-26.55
-18.07
-8.38
1.19
9.51
15.57
17.87
15.85
8.99
-1.53
-14.35
-26.99
-37.12
-43.23
-44.28
-40.95
-33.98
-25.25
-15.94
-7.65
-1.49
1.96
2.24
0.16
-3.66
-7.64
-11.10
-13.07
-13.18
-11.66
-8.61
-5.17
-1.88
0.11
0.79
0.02
-1.74
-3.84
-6.08
-7.77
-8.97
-9.12
-8.44
-6.59
-3.72
-0.29
3.37
6.11
7.51
6.69
3.87
-1.01
-7.22
-13.60
-18.98
-21.38
-19.85
-13.52
-3.27
9.75
23.38
35.30
43.64
46.34
42.80
32.81
18.06
0.53
-16.82
-31.11
-40.26
-42.50
-37.80
-26.57
-10.91
7.10
24.58
38.78
47.72
49.60
44.38
32.52
16.19
-2.50
-20.61
-35.45
-45.07
-47.74
-43.40
-32.44
-16.91
1.17
18.93
33.68
43.38
46.24
42.11
31.37
16.08
-1.66
-18.94
-33.04
-41.94
-43.91
-38.90
-27.38
-11.47
6.73
24.31
38.59
47.65
49.74
44.83
33.31
17.27
-1.23
-19.31
-34.21
-43.90
-46.49
-41.84
-30.27
-13.85
5.33
24.33
40.42
51.59
56.05
53.70
44.86
31.52
15.66
0.10
-12.50
-20.28
-21.65
-16.76
-6.22
7.87
23.66
38.75
51.01
58.92
60.85
56.53
45.88
30.44
11.81
-7.42
-24.66
-37.81
-44.89
-45.45
-39.50
-28.72
-14.84
-0.45
12.09
21.05
24.89
23.56
17.24
7.57
-3.94
-15.02
-23.53
-28.16
-27.95
-23.61
-15.97
-6.90
2.69
11.75
19.62
25.76
28.93
28.49
23.63
15.15
4.11
-7.25
-16.69
-22.73
-24.22
-21.57
-15.25
-6.75
3.06
12.85
21.44
27.82
30.49
28.96
22.74
12.98
0.97
-10.98
-20.61
-26.47
-27.47
-24.13
-17.12
-8.16
1.74
11.23
19.28
25.11
27.46
25.93
20.02
10.75
-0.79
-12.42
-22.00
-28.03
-29.28
-26.10
-18.99
-9.59
1.01
11.31
20.06
26.32
28.78
27.12
20.97
11.49
-0.13
-11.66
-20.99
-26.72
-27.77
-24.67
-18.03
-9.53
-0.10
9.00
16.76
22.41
24.64
23.00
16.94
7.47
-4.24
-15.99
-25.61
-31.67
-33.02
-30.07
-23.33
-14.40
-4.30
5.46
13.62
19.22
21.03
18.92
12.77
3.92
-6.38
-16.06
-23.38
-27.44
-27.69
-25.10
-20.45
-15.29
-10.15
-5.78
-2.54
-0.66
-0.86
-3.13
-7.71
-13.59
-20.01
-25.42
-28.69
-29.37
-27.30
-23.60
-19.03
-15.06
-12.17
-11.11
-11.92
-14.10
-16.93
-18.67
-18.26
-14.47
-7.72
1.33
11.15
20.00
26.65
29.53
28.25
22.34
12.82
0.77
-11.86
-22.87
-30.58
-33.13
-30.21
-21.78
-9.45
5.16
19.65
31.66
39.48
41.36
37.06
26.69
12.03
-5.12
-22.09
-36.28
-45.72
-48.54
-44.48
-33.73
-18.26
-0.10
17.82
32.71
42.54
45.48
41.46
30.86
15.78
-1.71
-18.73
-32.56
-41.24
-43.02
-37.86
-26.21
-10.17
8.17
25.94
40.48
49.87
52.40
47.99
37.02
21.51
3.43
-14.37
-29.18
-38.98
-41.88
-37.71
-26.77
-11.13
7.14
25.13
40.15
50.27
53.77
50.63
41.21
27.51
11.45
-4.22
-16.92
-24.81
-26.30
-21.52
-11.01
3.15
19.17
34.62
47.33
55.72
58.15
54.32
44.24
29.55
11.98
-5.80
-21.18
-32.30
-37.50
-36.78
-30.44
-20.24
-7.64
5.22
16.41
24.45
27.72
25.89
18.85
8.05
-5.01
-17.92
-28.37
-34.77
-35.77
-31.62
-22.78
-11.06
2.19
15.09
25.96
33.56
36.41
34.18
26.66
15.20
1.21
-12.93
-24.94
-33.22
-36.40
-34.68
-28.44
-19.29
-8.38
2.60
12.19
19.23
22.31
21.05
15.16
5.87
-5.54
-16.86
-25.93
-31.29
-31.66
-27.31
-18.66
-7.37
5.33
17.71
28.21
35.71
38.81
37.21
30.68
20.50
7.93
-4.83
-15.65
-23.02
-25.57
-23.48
-17.02
-7.82
2.99
13.67
22.71
29.00
31.16
28.96
22.19
12.15
0.09
-11.81
-21.47
-27.51
-28.78
-25.67
-18.68
-9.46
0.95
11.08
19.70
25.90
28.35
26.70
20.54
10.97
-0.89
-12.91
-22.99
-29.64
-31.47
-28.55
-21.11
-10.71
1.44
13.46
23.67
30.78
33.42
31.41
24.67
14.64
2.63
-9.16
-18.70
-24.67
-26.02
-23.25
-16.89
-8.58
0.75
9.82
17.56
23.14
25.20
23.28
16.87
7.03
-5.05
-17.14
-27.07
-33.39
-34.85
-31.71
-24.31
-14.25
-2.62
8.90
18.84
26.04
29.08
27.63
21.40
11.57
-0.71
-13.29
-24.02
-31.20
-33.22
-29.95
-21.58
-9.87
3.59
16.57
27.19
34.26
36.68
34.62
28.19
18.76
7.38
-4.07
-13.70
-20.15
-22.13
-19.90
-13.94
-6.00
2.78
10.91
17.34
21.37
21.94
18.95
12.12
2.71
-7.96
-17.56
-24.04
-26.45
-24.56
-19.95
-13.99
-8.42
-3.35
1.38
6.18
11.02
14.43
15.03
11.21
3.28
-7.70
-19.20
-28.68
-34.49
-35.49
-32.11
-24.75
-14.81
-3.11
8.85
19.57
27.65
31.32
30.02
23.34
12.61
-0.72
-14.21
-25.51
-32.94
-35.06
-32.00
-24.15
-13.29
-0.81
11.32
21.41
28.30
30.72
28.54
21.63
11.27
-1.42
-14.40
-25.62
-33.50
-36.46
-34.38
-27.40
-17.19
-5.28
6.06
14.91
20.06
20.66
17.36
10.87
2.98
-5.20
-12.17
-16.97
-19.25
-18.72
-16.28
-12.51
-8.72
-5.21
-2.55
-0.89
-0.23
-1.10
-3.35
-7.19
-11.75
-16.50
-20.18
-21.99
-21.66
-19.11
-15.41
-11.27
-8.17
-6.75
-7.79
-10.97
-14.95
-17.85
-16.98
-11.04
0.37
15.28
31.31
45.89
57.22
64.81
68.27
67.91
63.39
55.27
44.37
32.65
22.66
16.40
15.09
18.22
24.94
34.11
45.56
59.27
74.64
89.82
101.32
105.62
100.19
85.38
63.84
40.15
18.82
2.82
-6.53
-9.68
-7.14
0.54
13.54
31.84
54.94
81.69
110.25
138.95
166.08
190.78
212.51
231.02
245.92
256.62
262.31
262.05
255.58
242.54
223.11
197.94
168.10
134.92
99.80
64.08
28.81
-5.10
-37.17
-66.84
-93.38
-115.92
-133.58
-145.79
-152.53
-154.80
-153.30
-149.66
-145.56
-142.17
-139.94
-138.50
-137.39
-136.08
-134.76
-134.05
-134.86
-138.19
-144.67
-155.34
-171.14
-193.00
-220.19
-249.52
-274.99
-289.33
-286.98
-266.37
-231.52
-190.00
-150.21
-117.86
-94.84
-80.16
-71.96
-69.24
-71.19
-76.15
-80.30
-78.40
-66.06
-42.43
-11.28
20.33
44.74
57.50
58.37
50.83
39.86
29.29
21.34
16.52
14.98
16.46
21.13
28.58
37.24
44.40
46.29
39.72
22.59
-5.67
-44.60
-91.80
-142.98
-192.15
-232.48
-258.85
-268.86
-263.43
-246.73
-224.23
-199.59
-172.86
-140.61
-96.35
-37.12
31.79
100.97
160.13
200.19
216.78
211.57
190.42
160.25
125.92
90.40
57.01
30.74
18.22
24.57
48.98
82.20
108.83
113.23
87.48
35.45
-29.67
-91.58
-138.68
-168.10
-184.83
-195.93
-207.07
-219.61
-230.89
-239.42
-244.37
-246.65
-247.21
-244.41
-234.22
-210.77
-168.29
-103.84
-19.60
76.63
173.12
258.02
323.14
366.48
392.37
408.67
422.52
436.99
450.65
459.00
458.12
447.12
428.50
406.34
383.82
361.50
337.88
310.82
278.85
242.38
203.86
166.46
132.87
105.07
81.93
60.93
39.71
16.94
-6.71
-28.71
-46.10
-56.44
-59.16
-55.93
-49.68
-43.85
-42.34
-48.54
-64.82
-91.81
-127.47
-167.07
-204.14
-232.53
-245.40
-241.26
-223.98
-200.90
-179.41
-163.84
-154.60
-149.45
-145.70
-142.13
-139.70
-139.93
-143.30
-148.62
-153.53
-155.98
-155.40
-152.89
-150.87
-152.33
-159.21
-171.62
-187.82
-204.74
-219.35
-229.77
-235.68
-238.15
-238.80
-238.54
-236.71
-231.77
-220.28
-198.49
-163.37
-113.09
-47.32
32.21
121.18
212.31
295.63
360.80
400.29
412.12
400.56
374.21
342.39
311.77
284.98
261.31
239.13
217.60
197.17
178.77
162.68
147.92
132.82
116.03
97.46
78.38
60.83
46.60
36.36
29.47
24.30
19.04
12.50
4.52
-4.03
-11.76
-17.50
-20.78
-21.99
-22.13
-22.34
-23.38
-25.37
-27.84
-30.06
-31.36
-31.48
-30.59
-29.00
-27.33
-26.02
-25.17
-24.62
-24.04
-23.16
-21.86
-20.18
-18.28
-16.40
-14.63
-13.03
-11.56
-10.14
-8.71
-7.25
-5.73
-4.16
-2.58
-0.98
0.65
2.33
4.06
5.82
7.62
9.45
11.34
13.27
15.25
17.30
19.40
21.61
23.85
26.13
28.46
30.84
33.29
35.82
38.41
41.05
43.75
46.27
48.52
50.36
51.61
52.02
51.33
49.30
45.71
40.48
33.27
24.02
12.81
-0.17
-14.55
-29.93
-45.81
-61.65
-76.15
-89.15
-100.26
-109.06
-115.16
-118.12
-117.69
-113.64
-106.78
-96.54
-83.04
-66.63
-48.07
-28.41
-8.73
9.44
24.65
35.66
41.54
41.60
35.73
24.34
8.19
-11.36
-33.13
-55.69
-76.63
-94.84
-109.58
-120.14
-126.15
-128.66
-126.95
-120.96
-110.88
-97.02
-79.97
-60.35
-38.88
-16.31
6.61
29.66
51.31
70.41
86.23
98.18
105.92
109.41
108.80
104.42
96.93
87.09
75.35
62.33
48.80
35.52
23.26
12.79
4.78
-0.12
-1.73
0.00
4.90
12.51
22.29
33.28
44.44
54.88
63.79
70.34
73.90
73.98
70.50
63.63
54.18
42.68
29.83
16.49
3.15
-9.87
-22.41
-34.40
-45.66
-55.99
-64.99
-72.39
-77.94
-81.85
-84.53
-86.79
-89.30
-92.57
-96.67
-100.87
-104.37
-105.93
-104.95
-101.72
-97.73
-95.48
-97.44
-105.06
-117.54
-131.80
-142.73
-145.29
-136.67
-117.61
-92.63
-68.32
-51.20
-45.25
-51.07
-65.37
-83.15
-98.78
-107.52
-106.64
-95.93
-78.25
-58.62
-45.50
-45.99
-63.03
-93.57
-128.44
-156.17
-166.88
-156.09
-125.69
-82.21
-33.39
14.51
57.77
94.80
124.77
146.90
160.49
165.54
163.14
155.64
145.84
135.77
126.09
115.72
103.19
87.12
67.42
45.40
23.51
4.44
-10.07
-19.40
-24.20
-25.43
-23.85
-19.43
-11.23
1.80
20.09
42.68
67.42
91.33
111.84
127.36
137.74
143.99
147.37
148.50
146.70
140.45
128.09
109.10
84.54
57.17
30.81
8.40
-8.93
-22.58
-35.11
-49.15
-65.44
-82.23
-95.99
-101.18
-93.21
-69.06
-28.56
25.76
87.89
148.60
196.37
220.27
216.80
189.82
150.64
113.29
90.03
87.43
105.14
137.61
176.76
218.87
261.62
302.85
338.08
361.12
366.48
352.10
320.93
280.64
246.51
233.15
249.55
295.35
361.01
432.25
495.12
540.70
541.04
483.38
372.61
230.83
85.84
-43.06
-148.83
-232.85
-298.16
-346.67
-375.16
-381.85
-369.60
-345.86
-320.23
-299.94
-287.84
-282.31
-279.49
-272.69
-257.44
-233.71
-205.60
-179.16
-159.44
-149.01
-148.14
-155.56
-166.68
-175.57
-177.51
-169.23
-150.31
-123.46
-94.04
-68.48
-52.25
-46.87
-49.65
-55.90
-61.44
-64.56
-65.81
-66.62
-67.84
-69.01
-68.50
-64.89
-58.25
-49.95
-42.19
-36.88
-34.75
-35.22
-36.86
-38.07
-37.70
-35.69
-32.70
-29.94
-28.55
-29.08
-31.41
-34.80
-38.24
-40.88
-42.37
-42.84
-42.92
-43.45
-45.02
-47.98
-52.16
-57.05
-61.99
-66.46
-70.05
-72.79
-75.17
-77.30
-78.98
-79.83
-79.16
-76.27
-70.61
-61.65
-48.47
-29.86
-4.82
25.87
58.71
87.37
104.53
104.13
86.00
55.19
19.72
-12.51
-36.22
-48.99
-50.23
-39.80
-18.12
12.92
48.83
83.03
109.12
123.37
126.10
120.82
111.94
102.55
94.03
86.37
79.55
74.24
71.42
71.39
73.11
74.48
73.56
69.29
62.29
54.51
48.29
45.43
46.67
51.64
58.94
66.10
69.67
65.72
51.22
25.59
-8.48
-45.30
-78.27
-102.36
-115.78
-120.23
-119.66
-118.34
-118.91
-121.30
-122.89
-119.49
-107.45
-85.35
-54.95
-20.90
11.09
36.73
54.90
66.66
73.02
73.07
64.26
45.11
18.21
-8.92
-26.51
-27.42
-11.20
15.30
41.55
58.83
63.73
59.26
51.86
47.36
48.28
53.74
60.68
65.77
66.63
62.43
53.89
42.84
31.39
21.23
13.52
8.57
5.95
4.44
2.30
-2.39
-11.03
-23.81
-39.25
-54.65
-67.17
-75.17
-78.89
-80.04
-80.46
-81.02
-81.09
-79.44
-75.62
-70.58
-66.20
-64.14
-65.20
-69.02
-74.71
-81.05
-86.48
-88.71
-84.79
-72.20
-50.32
-21.53
9.28
36.39
55.68
66.04
69.33
68.74
66.83
64.49
61.27
56.75
51.51
47.21
45.58
47.25
51.14
55.04
56.67
54.81
50.12
44.68
41.02
40.89
44.38
49.91
55.00
57.28
55.80
51.42
46.34
43.10
43.41
47.40
53.19
58.01
58.64
53.15
41.58
25.55
7.30
-11.28
-29.17
-45.66
-59.37
-68.97
-73.68
-74.40
-73.57
-73.32
-73.40
-70.52
-59.87
-39.18
-11.49
15.05
30.83
30.03
14.20
-8.63
-28.36
-37.96
-37.08
-30.56
-24.31
-21.44
-21.26
-20.66
-16.96
-9.97
-1.75
4.63
7.08
5.65
2.22
-0.54
-0.45
3.07
8.99
15.30
19.89
21.70
21.00
19.19
17.94
18.50
21.09
24.90
28.56
30.73
30.68
28.54
25.01
20.86
16.83
13.09
9.43
5.44
0.80
-4.47
-10.00
-14.89
-18.93
-21.80
-23.46
-24.13
-24.08
-23.58
-22.82
-22.02
-21.07
-20.03
-18.88
-17.69
-16.52
-15.38
-14.31
-13.29
-12.31
-11.35
-10.46
-9.60
-8.78
-8.01
-7.27
-6.57
-5.91
-5.28
-4.68
-4.12
-3.61
-3.13
-2.69
-2.28
-1.90
-1.56
-1.24
-0.93
-0.66
-0.42
-0.20
0.00
0.19
0.34
0.48
0.60
0.71
0.80
0.89
0.98
1.08
1.15
1.19
1.15
1.04
0.86
0.67
0.51
0.42
0.41
0.45
0.47
0.42
0.28
0.05
-0.20
-0.40
-0.51
-0.53
-0.51
-0.56
-0.80
-1.24
-1.87
-2.52
-3.05
-3.30
-3.31
-3.22
-3.30
-3.82
-4.88
-6.37
-7.95
-9.21
-9.84
-9.86
-9.64
-9.76
-10.81
-13.04
-16.22
-19.67
-22.59
-24.37
-25.02
-25.15
-25.78
-27.88
-31.87
-37.39
-43.38
-48.60
-52.24
-54.17
-55.13
-56.20
-58.49
-62.82
-69.71
-79.31
-90.89
-102.36
-110.23
-110.52
-100.31
-79.53
-51.73
-22.89
0.85
15.66
21.35
20.74
17.69
15.13
14.05
14.05
14.46
15.37
17.83
23.06
31.56
42.58
54.68
66.27
76.25
84.37
90.93
96.43
100.97
103.91
103.93
99.56
89.81
74.53
54.59
31.54
7.24
-16.80
-38.85
-58.16
-74.20
-86.73
-95.39
-99.76
-99.36
-94.07
-83.63
-68.60
-50.24
-29.77
-8.43
12.70
32.85
51.48
67.12
79.86
89.55
95.92
99.14
99.58
97.77
94.28
89.57
83.94
77.68
71.76
65.27
58.35
51.48
45.37
40.77
38.17
37.75
39.52
42.85
46.87
51.11
55.24
58.87
61.76
63.59
64.18
63.91
63.24
62.75
62.53
61.27
56.62
46.61
30.90
11.66
-7.40
-23.43
-35.51
-44.31
-50.75
-54.27
-52.76
-44.81
-31.90
-19.06
-13.66
-20.65
-40.02
-67.29
-96.57
-123.76
-148.36
-171.56
-188.74
-195.81
-187.74
-162.04
-121.88
-76.13
-34.41
-3.13
17.12
30.28
39.69
45.82
45.59
36.12
17.93
-2.35
-16.08
-16.62
-1.70
25.02
57.80
92.28
127.71
164.82
203.85
239.84
257.98
248.44
210.28
153.55
94.35
49.25
22.25
10.27
4.08
-6.43
-27.19
-60.05
-103.69
-156.49
-213.26
-269.10
-309.28
-320.78
-298.60
-248.42
-184.30
-121.11
-69.17
-32.09
-8.38
7.00
18.38
28.58
39.16
49.82
60.28
68.32
70.56
63.81
47.14
21.49
-10.47
-44.45
-74.99
-95.74
-101.33
-88.71
-56.27
-8.43
45.14
92.75
123.75
131.29
117.04
89.87
60.58
35.97
17.28
2.10
-12.17
-26.28
-38.74
-46.43
-46.43
-36.55
-17.37
9.18
38.86
65.48
82.24
84.36
71.34
45.58
15.87
-7.74
-18.74
-16.68
-6.27
6.00
15.32
20.57
23.09
25.16
26.94
27.13
24.73
20.80
18.31
19.96
26.10
33.67
37.42
32.71
18.60
-1.16
-19.73
-30.73
-31.52
-23.67
-13.00
-5.39
-3.93
-8.15
-15.44
-23.09
-29.83
-35.86
-41.84
-48.09
-53.97
-58.11
-59.64
-58.73
-56.73
-55.24
-55.82
-59.00
-64.32
-70.41
-75.51
-78.58
-79.45
-78.67
-77.08
-75.38
-73.61
-71.17
-67.11
-59.94
-48.97
-34.30
-16.74
2.47
21.98
40.69
57.79
71.78
82.78
90.92
96.30
99.09
99.52
97.97
94.84
90.54
85.39
79.78
73.92
68.01
62.40
57.42
53.33
50.15
47.54
44.96
42.00
38.39
34.25
30.13
26.73
24.60
23.83
23.98
24.61
24.74
23.90
22.08
20.03
18.40
17.88
18.85
21.38
25.25
29.77
33.62
34.70
30.93
21.24
6.76
-8.99
-21.12
-25.44
-20.40
-8.21
6.23
17.77
23.09
21.91
16.66
10.68
6.36
3.88
3.22
2.93
2.94
4.60
9.60
18.23
28.19
35.71
37.06
30.98
19.12
5.15
-7.54
-17.49
-25.30
-32.55
-40.08
-47.31
-52.87
-55.97
-57.21
-58.56
-62.35
-69.47
-78.46
-85.30
-84.84
-73.08
-49.38
-17.61
14.40
37.96
47.47
42.85
29.42
14.92
5.41
2.56
3.68
4.36
1.94
-2.71
-5.98
-3.97
4.80
18.25
31.76
40.27
40.78
34.02
24.24
17.24
17.88
28.18
46.40
68.09
88.67
103.54
109.65
105.38
90.11
64.60
32.30
0.24
-21.49
-23.08
0.47
46.11
102.44
153.65
185.85
193.12
179.59
156.86
137.78
130.29
134.61
144.55
151.98
151.55
143.09
130.52
118.56
109.40
101.31
90.34
73.34
50.63
26.62
7.53
-2.22
-2.68
1.54
3.89
-0.30
-11.18
-24.21
-32.65
-31.31
-19.24
-0.14
19.55
33.60
38.38
33.64
21.82
6.88
-7.01
-16.28
-18.72
-14.21
-5.08
4.33
9.01
5.05
-9.15
-32.53
-62.04
-94.23
-126.30
-156.82
-185.60
-213.21
-240.74
-269.95
-303.33
-343.62
-392.19
-447.07
-501.80
-546.31
-569.80
-564.74
-529.75
-470.04
-395.02
-314.43
-235.14
-159.88
-88.16
-18.12
51.90
122.80
194.49
265.64
333.04
391.26
433.45
453.12
446.55
414.15
360.66
293.62
221.46
151.80
90.31
40.06
0.91
-30.43
-60.05
-95.25
-142.04
-202.09
-270.61
-336.22
-383.68
-399.03
-374.56
-312.60
-225.70
-133.45
-56.64
-11.21
-4.31
-33.62
-90.43
-161.84
-233.59
-292.64
-329.55
-339.98
-324.88
-289.31
-240.45
-187.43
-137.24
-92.65
-52.50
-13.97
24.95
64.66
104.13
141.56
171.83
190.97
198.39
197.12
191.28
183.39
173.58
160.09
140.54
108.97
61.85
0.61
-68.73
-138.92
-204.71
-263.46
-314.04
-329.12
-292.02
-206.30
-95.57
13.19
103.38
169.95
214.80
242.82
259.56
265.74
261.74
249.67
233.81
218.46
205.99
196.85
190.68
187.03
182.47
174.29
162.26
148.70
136.49
127.27
121.27
117.98
116.81
115.20
111.23
104.61
96.74
89.34
83.38
78.86
75.25
72.03
67.83
61.67
53.63
44.78
36.07
28.05
20.76
13.96
7.55
1.26
-4.78
-10.03
-13.68
-15.61
-16.12
-15.88
-15.68
-15.93
-16.51
-16.73
-15.58
-12.15
-6.89
-0.79
4.65
7.96
8.35
6.02
2.14
-1.72
-3.93
-4.82
-5.42
-7.57
-13.51
-25.45
-44.91
-72.76
-109.33
-147.14
-180.41
-204.15
-215.90
-216.98
-212.00
-207.23
-208.02
-216.67
-231.48
-248.39
-261.50
-265.15
-255.60
-231.83
-195.65
-151.01
-102.54
-53.83
-6.94
38.64
84.47
130.63
174.56
211.23
235.29
243.45
235.64
214.01
182.38
144.90
105.69
69.70
42.67
29.90
34.42
54.82
85.05
116.82
142.94
160.36
171.14
180.39
193.23
212.34
236.57
261.23
279.80
285.70
274.26
244.12
196.80
136.87
71.98
11.85
-34.07
-59.55
-64.46
-54.34
-37.88
-23.93
-17.81
-19.29
-23.85
-26.32
-23.73
-16.83
-7.33
4.64
19.55
37.12
55.23
69.87
76.49
72.64
58.42
33.92
7.58
-9.88
-14.00
-8.11
1.81
11.52
19.68
24.25
24.16
19.10
8.37
-8.93
-33.31
-64.92
-104.93
-142.64
-170.22
-183.85
-184.86
-178.17
-168.72
-159.15
-149.65
-139.13
-126.26
-112.30
-99.13
-88.34
-81.06
-77.56
-77.01
-77.63
-77.28
-74.23
-69.12
-63.49
-58.98
-56.86
-57.87
-62.07
-68.87
-76.69
-82.84
-84.53
-78.85
-63.80
-39.64
-9.39
21.98
49.07
67.90
76.85
76.21
67.86
54.50
39.11
24.62
13.61
7.80
7.62
11.90
18.19
23.86
27.16
27.55
25.14
20.25
13.40
5.32
-1.97
-5.46
-2.26
8.34
23.80
39.19
49.56
52.69
50.03
45.12
40.18
33.84
21.74
0.41
-28.52
-57.21
-74.44
-71.46
-47.28
-9.61
29.14
57.92
71.73
72.22
64.40
52.84
39.34
23.79
6.48
-9.95
-22.00
-28.00
-30.17
-33.93
-43.97
-60.66
-79.26
-92.41
-94.94
-87.13
-73.95
-61.76
-53.93
-49.00
-42.21
-29.20
-8.29
19.14
48.65
77.13
102.97
125.19
142.16
151.53
151.33
141.84
126.01
108.69
94.98
88.16
88.78
95.09
103.96
111.95
116.23
115.10
108.25
97.00
83.54
70.37
59.45
51.51
46.06
41.16
33.51
18.93
-6.36
-43.95
-91.11
-140.16
-180.65
-203.73
-206.85
-195.28
-179.33
-168.68
-166.64
-167.92
-161.45
-136.72
-90.38
-29.20
32.07
77.46
97.05
91.03
68.30
40.98
18.35
2.99
-9.05
-24.86
-50.35
-86.81
-130.00
-172.07
-204.88
-222.82
-224.34
-211.60
-189.15
-162.22
-135.50
-112.09
-93.36
-79.24
-68.60
-59.91
-51.39
-40.82
-25.68
-3.28
28.17
68.23
113.32
156.42
188.23
200.62
190.03
159.43
117.59
75.06
39.72
14.55
-1.85
-12.26
-18.07
-18.84
-13.57
-2.71
11.34
25.50
38.09
49.77
62.24
76.21
90.03
100.13
103.74
100.95
95.18
91.14
91.35
93.89
92.58
79.56
49.57
3.24
-52.04
-104.05
-140.32
-153.09
-142.03
-113.87
-78.98
-46.51
-20.90
-1.27
16.34
35.24
55.50
73.94
86.34
90.36
87.35
81.76
78.49
80.27
86.13
91.99
93.17
86.77
73.32
56.53
41.59
32.66
30.92
34.14
38.06
38.68
34.42
26.97
20.29
18.44
23.35
34.13
47.65
60.22
68.97
72.01
67.82
54.94
32.77
2.67
-31.75
-65.77
-95.74
-120.64
-141.52
-159.40
-172.99
-178.06
-168.87
-141.26
-95.11
-35.13
30.20
91.25
139.60
169.52
178.58
167.17
137.45
92.25
34.25
-33.92
-108.43
-182.80
-247.82
-293.70
-313.56
-306.65
-278.96
-240.81
-202.28
-169.18
-141.36
-114.01
-80.99
-38.77
11.44
63.65
109.08
139.35
149.40
139.44
115.07
85.64
61.40
50.96
59.59
88.87
136.70
197.59
262.92
321.69
362.51
376.57
360.61
318.36
259.35
195.24
135.49
84.54
42.26
6.79
-22.53
-44.21
-56.43
-59.31
-55.75
-49.51
-42.20
-31.68
-13.46
15.62
53.65
93.20
124.62
141.08
142.12
133.26
122.09
113.97
109.40
105.19
97.27
83.23
62.84
37.08
6.35
-30.31
-74.39
-125.43
-178.92
-226.09
-256.15
-261.05
-240.36
-203.49
-167.30
-149.31
-159.75
-196.26
-244.68
-285.63
-303.37
-292.32
-257.86
-211.60
-164.23
-120.31
-77.67
-31.28
21.69
78.72
132.48
174.31
198.42
203.83
193.30
171.08
140.87
105.76
68.93
35.17
10.16
-1.14
2.89
18.61
38.27
52.80
55.67
45.22
24.79
1.00
-19.25
-31.62
-35.52
-33.15
-27.29
-19.02
-7.00
11.01
36.07
66.39
97.14
122.63
139.85
150.37
160.03
175.32
198.61
226.25
250.20
261.75
255.43
231.77
195.97
154.69
111.96
66.50
14.32
-46.69
-113.44
-177.59
-228.53
-257.84
-263.15
-245.16
-211.84
-176.25
-149.75
-136.03
-131.22
-129.12
-125.80
-120.89
-116.24
-114.32
-115.75
-118.75
-120.58
-119.36
-115.03
-109.28
-104.18
-101.31
-101.67
-104.77
-108.72
-111.32
-111.17
-108.29
-103.73
-98.79
-94.30
-90.69
-87.85
-84.44
-79.29
-71.85
-62.70
-53.13
-44.55
-37.98
-33.99
-32.53
-33.00
-34.81
-37.37
-40.63
-44.99
-50.88
-58.51
-67.70
-77.82
-87.91
-97.13
-104.65
-110.40
-114.97
-119.24
-123.78
-128.35
-131.66
-131.37
-128.01
-121.42
-112.35
-102.52
-94.14
-89.00
-87.56
-88.66
-89.88
-88.64
-82.93
-72.81
-60.15
-47.95
-38.84
-33.85
-31.97
-30.41
-25.52
-13.37
8.68
40.86
80.12
119.71
149.94
160.61
144.63
101.58
39.46
-27.23
-82.02
-112.06
-112.05
-84.90
-39.13
15.46
71.39
125.11
175.87
223.70
267.56
305.02
333.22
350.34
356.86
355.22
348.80
340.31
330.85
319.79
305.73
287.82
266.62
244.25
223.40
206.09
192.66
181.75
170.99
158.32
142.99
125.83
108.83
94.02
82.55
74.23
67.80
61.59
54.28
45.40
35.31
24.87
14.99
6.35
-0.70
-6.12
-10.05
-12.80
-14.71
-16.18
-17.47
-18.79
-20.19
-21.61
-23.02
-24.44
-26.04
-28.00
-30.48
-33.44
-36.62
-39.56
-41.75
-42.81
-42.67
-41.57
-40.00
-38.49
-37.37
-36.68
-36.25
-35.82
-35.23
-34.50
-33.77
-33.20
-32.87
-32.75
-32.70
-32.53
-32.09
-31.30
-30.14
-28.72
-27.26
-26.02
-25.24
-25.05
-25.41
-26.12
-26.87
-27.41
-27.64
-27.64
-27.54
-27.43
-27.29
-26.98
-26.36
-25.42
-24.29
-23.22
-22.44
-22.02
-21.83
-21.67
-21.33
-20.75
-19.96
-19.05
-18.11
-17.11
-16.03
-14.86
-13.58
-12.22
-10.76
-9.12
-7.23
-5.10
-2.94
-1.08
0.11
0.40
-0.13
-1.11
-2.03
-2.42
-2.10
-1.24
-0.24
0.49
0.66
0.29
-0.43
-1.22
-1.86
-2.27
-2.49
-2.66
-2.95
-3.52
-4.42
-5.56
-6.64
-7.20
-6.75
-4.98
-1.94
1.95
5.99
9.47
11.92
13.28
13.95
14.48
15.34
16.56
17.71
17.98
16.59
13.17
8.07
2.31
-2.62
-5.25
-4.60
-0.46
6.50
14.93
23.06
29.07
31.40
29.02
21.70
10.14
-4.09
-18.86
-32.01
-41.96
-48.17
-51.11
-51.90
-51.66
-50.92
-49.46
-46.62
-41.86
-35.29
-27.80
-20.71
-15.14
-11.53
-9.45
-7.96
-6.18
-3.84
-1.34
0.48
0.97
0.08
-1.46
-2.54
-2.23
-0.23
2.98
6.49
9.38
11.19
11.96
12.08
11.93
11.72
11.38
10.77
9.83
8.71
7.67
6.99
6.80
7.05
7.52
7.96
8.16
8.06
7.65
6.94
5.88
4.35
2.28
-0.30
-3.12
-5.84
-8.15
-9.90
-11.18
-12.21
-13.18
-14.18
-15.13
-15.91
-16.41
-16.60
-16.43
-15.82
-14.66
-12.81
-10.33
-7.49
-4.70
-2.40
-0.86
-0.09
0.14
0.15
0.18
0.33
0.58
0.92
1.40
2.18
3.35
4.91
6.66
8.30
9.56
10.28
10.48
10.26
9.76
9.07
8.26
7.34
6.35
5.36
4.54
4.06
4.07
4.66
5.67
6.82
7.65
7.83
7.19
5.86
4.19
2.61
1.42
0.79
0.72
1.09
1.73
2.47
3.09
3.39
3.18
2.43
1.23
-0.19
-1.59
-2.81
-3.78
-4.52
-5.04
-5.31
-5.21
-4.64
-3.55
-2.02
-0.26
1.45
2.79
3.56
3.65
3.19
2.40
1.58
1.01
0.83
1.02
1.43
1.83
2.00
1.82
1.32
0.64
0.06
-0.17
0.11
0.90
2.06
3.31
4.38
5.10
5.39
5.31
4.92
4.32
3.64
3.04
2.70
2.77
3.21
3.81
4.23
4.15
3.46
2.31
1.07
0.08
-0.48
-0.72
-0.92
-1.31
-1.92
-2.55
-2.83
-2.54
-1.70
-0.61
0.33
0.81
0.74
0.25
-0.45
-1.22
-2.06
-3.03
-4.07
-5.01
-5.51
-5.29
-4.22
-2.45
-0.26
1.97
3.97
5.56
6.68
7.38
7.73
7.87
7.92
7.94
7.85
7.52
6.83
5.73
4.29
2.61
0.77
-1.25
-3.42
-5.60
-7.48
-8.66
-8.88
-8.18
-6.88
-5.41
-4.10
-3.05
-2.17
-1.39
-0.74
-0.41
-0.53
-1.08
-1.78
-2.31
-2.48
-2.41
-2.48
-3.08
-4.34
-5.98
-7.42
-8.09
-7.67
-6.30
-4.47
-2.83
-1.89
-1.82
-2.48
-3.53
-4.64
-5.52
-6.03
-6.12
-5.74
-4.83
-3.39
-1.51
0.61
2.66
4.38
5.63
6.46
7.06
7.61
8.19
8.67
8.84
8.52
7.69
6.49
5.11
3.72
2.38
1.12
-0.05
-1.04
-1.71
-2.00
-1.90
-1.55
-1.13
-0.81
-0.69
-0.78
-1.06
-1.49
-1.99
-2.49
-2.91
-3.17
-3.25
-3.22
-3.20
-3.39
-3.95
-4.94
-6.26
-7.61
-8.61
-8.96
-8.54
-7.51
-6.18
-4.90
-3.89
-3.22
-2.87
-2.82
-3.06
-3.64
-4.53
-5.62
-6.69
-7.51
-7.83
-7.54
-6.58
-5.04
-3.12
-1.11
0.70
2.11
3.06
3.66
4.13
4.63
5.28
6.01
6.66
6.99
6.82
6.02
4.61
2.76
0.81
-0.86
-1.94
-2.26
-1.92
-1.21
-0.50
-0.11
-0.24
-0.84
-1.73
-2.64
-3.31
-3.63
-3.66
-3.65
-3.97
-4.93
-6.72
-9.32
-12.56
-16.11
-19.60
-22.70
-25.07
-26.48
-26.75
-25.79
-23.67
-20.61
-17.01
-13.46
-10.61
-9.02
-8.94
-10.21
-12.23
-14.22
-15.49
-15.76
-15.19
-14.20
-13.20
-12.35
-11.58
-10.72
-9.69
-8.49
-7.15
-5.59
-3.65
-1.21
1.63
4.47
6.83
8.33
9.00
9.21
9.48
10.23
11.52
13.05
14.37
15.06
14.94
14.04
12.65
11.10
9.76
8.91
8.72
9.22
10.26
11.62
12.99
14.10
14.83
15.17
15.24
15.19
15.14
15.14
15.19
15.23
15.20
14.97
14.40
13.35
11.78
9.86
7.90
6.31
5.37
5.15
5.41
5.73
5.66
4.83
3.19
0.94
-1.42
-3.27
-3.98
-3.18
-0.92
2.27
5.49
7.84
8.71
8.05
6.28
4.13
2.22
0.88
0.08
-0.47
-1.01
-1.73
-2.65
-3.71
-4.84
-5.97
-6.97
-7.64
-7.68
-6.84
-5.02
-2.36
0.76
3.79
6.22
7.69
8.13
7.72
6.76
5.54
4.27
3.08
2.01
1.07
0.29
-0.30
-0.69
-0.89
-0.86
-0.49
0.38
1.88
3.96
6.31
8.39
9.63
9.64
8.40
6.26
3.75
1.36
-0.65
-2.29
-3.76
-5.23
-6.72
-8.01
-8.83
-8.95
-8.37
-7.31
-6.14
-5.20
-4.60
-4.21
-3.72
-2.90
-1.72
-0.39
0.72
1.30
1.25
0.75
0.14
-0.22
-0.19
0.14
0.46
0.46
-0.05
-0.96
-1.96
-2.62
-2.61
-1.87
-0.59
0.84
1.99
2.55
2.39
1.55
0.19
-1.47
-3.12
-4.41
-4.98
-4.51
-2.89
-0.30
2.76
5.62
7.67
8.60
8.43
7.45
6.01
4.35
2.60
0.91
-0.52
-1.37
-1.42
-0.74
0.28
0.99
0.75
-0.74
-3.35
-6.52
-9.49
-11.58
-12.30
-11.53
-9.43
-6.41
-2.99
0.32
3.11
5.15
6.39
6.91
6.90
6.60
6.24
5.94
5.79
5.74
5.75
5.70
5.54
5.21
4.63
3.71
2.33
0.40
-2.02
-4.69
-7.23
-9.18
-10.18
-10.16
-9.30
-8.03
-6.84
-6.10
-5.94
-6.27
-6.87
-7.50
-8.03
-8.43
-8.71
-8.86
-8.86
-8.65
-8.23
-7.66
-7.04
-6.48
-6.02
-5.64
-5.31
-4.97
-4.63
-4.30
-3.98
-3.66
-3.31
-2.86
-2.28
-1.52
-0.56
0.61
1.91
3.22
4.36
5.16
5.54
5.54
5.30
4.99
4.69
4.38
3.99
3.45
2.78
2.09
1.55
1.31
1.42
1.82
2.40
3.04
3.63
4.06
4.26
4.20
3.91
3.49
3.11
2.90
2.91
3.12
3.41
3.68
3.85
3.97
4.09
4.29
4.51
4.63
4.51
4.04
3.27
2.34
1.46
0.80
0.41
0.20
0.05
-0.14
-0.46
-0.89
-1.44
-2.09
-2.77
-3.34
-3.62
-3.41
-2.64
-1.41
0.06
1.47
2.61
3.39
3.85
4.07
4.16
4.21
4.30
4.46
4.66
4.77
4.63
4.13
3.26
2.12
0.91
-0.13
-0.84
-1.09
-0.85
-0.12
1.00
2.34
3.71
4.91
5.84
6.48
6.88
7.10
7.15
6.98
6.52
5.76
4.74
3.55
2.35
1.30
0.53
0.19
0.36
1.12
2.47
4.38
6.77
9.50
12.39
15.27
18.10
20.90
23.84
27.04
30.52
34.10
37.54
40.61
43.39
46.29
49.88
54.71
61.03
68.61
76.87
85.09
92.68
99.36
105.22
110.56
115.68
120.73
125.52
129.57
132.11
132.27
129.04
121.44
108.64
90.29
66.86
39.77
11.35
-15.66
-38.71
-55.95
-66.55
-70.58
-68.79
-62.32
-52.72
-41.87
-31.97
-25.09
-22.63
-24.78
-30.54
-38.15
-46.06
-53.56
-60.97
-69.08
-78.07
-86.68
-91.98
-89.87
-76.14
-47.69
-3.72
53.44
118.01
181.25
233.10
264.67
271.00
252.81
216.27
170.71
125.16
85.29
52.16
23.10
-6.15
-39.14
-77.41
-120.26
-165.17
-208.44
-245.86
-273.43
-288.35
-289.74
-279.01
-259.45
-235.19
-210.02
-186.65
-166.61
-150.57
-138.71
-130.71
-125.67
-122.02
-117.86
-111.57
-102.48
-91.18
-79.32
-68.96
-61.70
-58.08
-57.41
-58.10
-58.46
-57.31
-54.51
-50.84
-47.52
-45.45
-44.69
-44.42
-43.31
-40.24
-34.82
-27.53
-19.26
-10.76
-2.16
6.83
16.30
25.46
32.45
35.07
31.88
23.34
11.93
1.24
-5.66
-7.56
-5.54
-2.16
0.17
0.47
-0.35
-0.19
2.86
9.31
17.92
26.44
32.76
36.06
37.02
37.36
38.67
41.47
45.01
47.72
48.16
45.87
41.47
36.25
31.35
27.20
23.38
19.11
13.84
7.81
2.05
-2.01
-3.21
-1.24
3.13
8.26
12.33
13.94
12.70
9.23
4.83
0.95
-1.44
-2.06
-1.28
0.23
1.84
3.23
4.48
5.91
7.82
10.25
12.93
15.36
17.06
17.81
17.72
17.19
16.64
16.31
16.15
15.93
15.41
14.53
13.46
12.46
11.73
11.18
10.53
9.40
7.57
5.16
2.53
0.07
-2.03
-3.97
-6.22
-9.22
-13.10
-17.40
-21.17
-23.33
-23.07
-20.24
-15.44
-9.74
-4.32
0.02
3.00
4.86
6.03
6.83
7.36
7.53
7.28
6.79
6.55
7.14
8.96
11.96
15.59
18.95
21.13
21.58
20.26
17.66
14.54
11.64
9.44
8.00
7.14
6.51
5.90
5.25
4.67
4.35
4.35
4.60
4.82
4.69
3.91
2.34
-0.04
-3.10
-6.67
-10.40
-13.75
-16.08
-16.79
-15.69
-13.12
-9.96
-7.24
-5.73
-5.61
-6.46
-7.64
-8.66
-9.52
-10.56
-12.26
-14.80
-17.99
-21.34
-24.32
-26.67
-28.35
-29.50
-30.24
-30.55
-30.24
-29.09
-26.89
-23.43
-18.59
-12.33
-4.78
3.64
12.14
19.68
25.26
28.17
28.22
25.74
21.43
16.17
10.87
6.39
3.46
2.57
3.80
6.82
10.93
15.33
19.30
22.38
24.32
24.95
24.11
21.65
17.62
12.36
6.52
0.89
-3.85
-7.34
-9.59
-10.85
-11.43
-11.49
-11.08
-10.23
-9.07
-7.92
-7.09
-6.71
-6.51
-5.88
-4.10
-0.71
4.18
9.89
15.34
19.43
21.37
20.87
18.14
13.79
8.71
3.88
0.20
-1.68
-1.52
0.38
3.27
6.20
8.32
9.13
8.57
6.90
4.60
2.12
-0.14
-1.85
-2.71
-2.43
-0.81
2.19
6.30
11.02
15.71
19.68
22.43
23.65
23.23
21.21
17.74
13.09
7.63
1.95
-3.26
-7.29
-9.63
-10.14
-9.05
-6.92
-4.38
-1.91
0.27
2.15
3.88
5.54
7.14
8.60
9.90
11.05
12.14
13.25
14.41
15.53
16.44
16.97
16.97
16.41
15.30
13.70
11.66
9.20
6.33
3.12
-0.28
-3.57
-6.43
-8.53
-9.74
-10.14
-9.95
-9.42
-8.71
-7.85
-6.82
-5.67
-4.56
-3.73
-3.31
-3.27
-3.33
-3.22
-2.74
-1.98
-1.16
-0.52
-0.06
0.43
1.28
2.74
4.80
7.18
9.50
11.41
12.81
13.79
14.61
15.52
16.67
18.08
19.63
21.11
22.33
23.15
23.49
23.35
22.78
21.86
20.79
19.83
19.31
19.54
20.67
22.58
24.96
27.40
29.58
31.41
33.01
34.65
36.60
39.05
42.06
45.57
49.44
53.49
57.48
61.24
64.76
68.22
72.05
76.77
82.79
90.25
98.91
108.22
117.53
126.25
134.09
141.18
148.12
155.82
165.21
176.79
190.09
203.46
214.18
219.11
215.56
202.20
179.38
148.96
113.46
75.27
35.94
-3.94
-44.36
-85.16
-125.31
-162.60
-193.93
-216.08
-226.74
-225.32
-212.81
-191.13
-162.14
-127.15
-87.17
-43.74
0.44
41.61
76.09
101.51
117.63
125.89
128.19
125.61
118.11
105.21
87.15
65.73
44.00
25.15
11.13
1.91
-4.21
-9.59
-16.11
-24.47
-34.18
-44.17
-53.55
-62.14
-70.54
-79.60
-89.59
-99.46
-106.62
-107.58
-99.19
-80.12
-51.86
-18.61
13.91
40.36
57.57
65.36
65.99
62.87
59.02
56.21
55.14
56.09
59.34
65.06
72.65
80.27
85.11
84.44
77.08
64.17
48.68
34.03
22.48
14.24
7.67
0.37
-9.86
-24.48
-44.29
-69.64
-100.28
-134.88
-170.76
-204.13
-231.01
-248.26
-254.25
-248.94
-233.48
-209.74
-180.25
-148.29
-117.87
-92.96
-76.29
-68.30
-66.74
-67.55
-66.55
-61.13
-51.17
-38.64
-26.38
-16.81
-10.90
-8.15
-7.20
-6.73
-6.11
-5.62
-5.88
-7.41
-10.17
-13.55
-16.69
-19.02
-20.54
-21.89
-24.06
-27.89
-33.64
-40.90
-48.86
-56.65
-63.72
-69.79
-74.57
-77.51
-77.85
-75.01
-69.15
-61.57
-54.43
-50.06
-50.16
-55.11
-63.94
-74.66
-84.88
-92.37
-95.68
-94.61
-90.53
-86.23
-85.26
-90.81
-104.52
-125.93
-152.56
-180.85
-207.36
-229.72
-247.04
-259.56
-267.94
-272.50
-272.83
-267.90
-256.62
-238.54
-214.56
-186.89
-158.59
-132.63
-110.92
-93.88
-80.66
-69.78
-59.91
-50.42
-41.27
-32.74
-24.96
-17.72
-10.63
-3.50
3.43
9.43
13.69
15.82
16.17
15.82
16.16
18.31
22.67
28.74
35.39
41.35
45.68
48.14
49.12
49.42
49.80
50.74
52.23
53.99
55.68
57.16
58.55
60.12
62.02
64.18
66.31
68.07
69.24
69.84
70.06
70.22
70.63
71.48
72.94
75.11
78.03
81.67
85.76
89.82
93.21
95.28
95.57
94.00
90.82
86.57
81.77
76.75
71.53
65.97
59.92
53.47
46.99
41.03
36.10
32.51
30.33
29.46
29.75
31.07
33.28
36.19
39.55
43.09
46.58
49.94
53.15
56.09
58.43
59.75
59.62
57.92
54.98
51.38
47.70
44.23
40.82
37.09
32.70
27.70
22.64
18.57
16.78
18.43
24.06
33.21
44.44
55.70
65.18
72.09
77.21
82.73
91.23
104.43
122.29
142.78
162.49
177.70
185.30
183.44
171.89
152.27
128.17
104.60
86.48
76.71
74.59
75.66
73.64
63.40
43.76
18.26
-6.35
-23.26
-28.58
-22.65
-9.19
6.90
21.63
32.86
39.82
42.24
39.64
31.67
19.06
4.21
-8.95
-16.11
-14.11
-2.05
18.69
45.28
74.45
103.12
128.30
147.00
156.30
153.96
139.25
113.42
79.51
41.70
4.35
-28.79
-55.07
-73.05
-82.65
-84.95
-81.96
-76.16
-70.13
-66.14
-66.06
-71.17
-81.97
-98.03
-117.98
-139.95
-161.96
-182.13
-198.42
-208.11
-207.97
-195.29
-169.58
-133.68
-93.81
-57.68
-31.91
-19.58
-19.58
-27.87
-39.74
-51.99
-63.65
-75.28
-87.46
-99.41
-108.86
-112.88
-109.25
-97.58
-79.57
-58.40
-37.71
-20.43
-8.21
-1.28
1.43
2.07
3.71
9.97
24.08
47.28
77.78
110.38
137.71
152.57
150.26
129.66
92.61
42.48
-17.03
-81.81
-146.61
-204.63
-248.58
-272.92
-276.25
-262.18
-237.99
-211.90
-190.35
-176.74
-171.83
-174.85
-184.34
-198.31
-213.91
-227.51
-235.61
-236.19
-229.57
-218.28
-205.82
-195.29
-188.26
-184.58
-182.97
-181.88
-180.10
-176.92
-171.98
-164.90
-155.33
-142.95
-127.81
-110.38
-91.48
-71.88
-52.07
-32.12
-11.74
9.37
31.33
54.04
77.20
100.45
123.34
145.28
165.52
183.33
198.18
209.99
218.99
225.58
230.01
232.24
232.07
229.44
224.64
218.38
211.53
204.88
198.95
194.02
190.17
187.34
185.20
183.08
180.04
175.28
168.61
160.70
152.81
146.08
140.84
136.31
130.92
123.19
112.61
100.04
87.32
76.39
68.46
63.46
60.39
57.92
55.13
51.81
48.39
45.52
43.61
42.68
42.36
42.09
41.39
39.87
37.31
33.58
28.58
22.23
14.51
5.57
-4.18
-14.03
-23.09
-30.59
-36.17
-40.08
-43.08
-46.04
-49.52
-53.44
-57.12
-59.63
-60.16
-58.43
-54.74
-49.79
-44.46
-39.51
-35.44
-32.35
-29.93
-27.51
-24.22
-19.32
-12.43
-3.71
6.15
16.19
25.39
33.07
38.93
43.16
46.17
48.45
50.33
51.89
53.00
53.43
53.01
51.66
49.48
46.68
43.58
40.52
37.85
35.84
34.62
34.12
34.10
34.17
33.97
33.17
31.60
29.19
25.97
21.99
17.39
12.39
7.29
2.41
-2.01
-5.89
-9.38
-12.83
-16.67
-21.14
-26.13
-31.03
-34.82
-36.40
-35.04
-30.63
-23.82
-15.77
-7.74
-0.68
4.96
9.25
12.55
15.28
17.74
20.06
22.25
24.27
26.03
27.37
28.13
28.13
27.29
25.66
23.54
21.36
19.62
18.66
18.55
19.03
19.59
19.73
19.13
17.81
16.00
14.04
12.18
10.51
8.96
7.42
5.75
3.91
1.85
-0.49
-3.11
-5.89
-8.52
-10.54
-11.43
-10.87
-8.85
-5.70
-1.89
2.14
6.17
10.16
14.17
18.16
21.98
25.41
28.27
30.55
32.37
33.86
35.11
36.07
36.64
36.76
36.53
36.16
35.87
35.83
36.00
36.23
36.28
35.97
35.28
34.39
33.63
33.42
34.02
35.50
37.62
39.94
41.95
43.27
43.73
43.41
42.51
41.28
39.91
38.49
36.99
35.26
33.10
30.36
26.99
23.17
19.22
15.55
12.53
10.41
9.25
8.98
9.37
10.17
11.09
11.90
12.38
12.32
11.50
9.72
6.83
2.92
-1.65
-6.27
-10.30
-13.36
-15.50
-17.23
-19.23
-22.06
-25.83
-30.19
-34.49
-38.03
-40.30
-41.15
-40.78
-39.66
-38.28
-37.05
-36.12
-35.30
-34.26
-32.69
-30.49
-27.87
-25.18
-22.78
-20.83
-19.25
-17.79
-16.19
-14.24
-11.74
-8.42
-3.94
2.07
9.85
19.39
30.36
42.24
54.48
66.64
78.47
89.92
101.06
112.02
122.98
134.07
145.35
156.78
168.15
179.24
189.83
199.79
209.09
217.70
225.52
232.37
238.05
242.38
245.14
245.77
243.12
235.35
220.30
196.19
162.32
119.64
70.54
18.29
-33.98
-84.00
-130.73
-174.23
-215.26
-254.94
-294.62
-335.94
-380.46
-428.97
-480.44
-531.21
-575.34
-605.97
-617.64
-608.22
-579.72
-537.34
-487.43
-435.39
-384.55
-336.33
-291.29
-250.09
-213.79
-183.25
-158.42
-137.98
-119.74
-101.56
-82.15
-61.45
-40.43
-20.34
-2.06
14.23
29.01
42.97
56.67
70.25
83.36
95.37
105.60
113.58
119.28
123.06
125.62
127.62
129.44
130.95
131.59
130.67
127.76
122.99
117.00
110.71
104.84
99.64
94.82
89.85
84.30
78.14
71.80
65.89
60.97
57.24
54.60
52.72
51.33
50.24
49.41
48.75
48.04
47.02
45.43
43.14
40.22
36.85
33.29
29.75
26.40
23.30
20.43
17.66
14.77
11.57
7.96
4.13
0.50
-2.34
-3.87
-3.92
-2.71
-0.78
1.25
2.97
4.35
5.65
7.30
9.67
12.89
16.83
21.19
25.59
29.71
33.35
36.43
38.99
41.06
42.63
43.56
43.54
42.25
39.44
35.15
29.78
23.98
18.53
14.06
10.95
9.27
8.83
9.25
10.11
11.06
11.82
12.27
12.45
12.48
12.52
12.72
13.14
13.71
14.14
14.00
12.80
10.21
6.25
1.39
-3.55
-7.69
-10.42
-11.67
-11.86
-11.70
-11.77
-12.34
-13.23
-14.03
-14.34
-13.97
-13.03
-11.82
-10.71
-9.94
-9.59
-9.61
-9.85
-10.17
-10.46
-10.63
-10.63
-10.46
-10.11
-9.61
-9.02
-8.43
-7.91
-7.52
-7.19
-6.77
-6.01
-4.67
-2.64
0.02
3.01
5.94
8.43
10.22
11.25
11.57
11.27
10.47
9.25
7.75
6.13
4.61
3.36
2.45
1.81
1.28
0.71
0.01
-0.76
-1.48
-1.99
-2.26
-2.35
-2.43
-2.67
-3.13
-3.73
-4.25
-4.50
-4.38
-3.97
-3.53
-3.33
-3.57
-4.20
-5.06
-5.98
-6.88
-7.78
-8.75
-9.74
-10.56
-10.95
-10.76
-10.01
-8.92
-7.73
-6.58
-5.41
-4.09
-2.51
-0.71
1.11
2.75
4.15
5.42
6.78
8.44
10.42
12.52
14.39
15.62
15.94
15.28
13.81
11.81
9.62
7.45
5.40
3.49
1.77
0.36
-0.53
-0.72
-0.14
1.14
2.90
4.81
6.51
7.67
8.05
7.55
6.29
4.49
2.45
0.40
-1.56
-3.42
-5.21
-6.87
-8.29
-9.32
-9.91
-10.22
-10.55
-11.31
-12.74
-14.85
-17.36
-19.82
-21.75
-22.87
-23.08
-22.43
-21.01
-18.86
-16.00
-12.50
-8.55
-4.45
-0.50
3.08
6.24
9.11
11.83
14.47
17.00
19.32
21.35
23.11
24.63
25.96
27.07
27.91
28.36
28.38
27.94
27.04
25.63
23.62
20.95
17.65
13.92
10.10
6.56
3.60
1.38
-0.07
-0.83
-1.03
-0.84
-0.44
-0.05
0.11
-0.09
-0.71
-1.62
-2.63
-3.49
-4.04
-4.28
-4.32
-4.36
-4.55
-4.90
-5.29
-5.52
-5.43
-4.96
-4.15
-3.14
-2.04
-0.94
0.10
1.02
1.68
1.98
1.90
1.60
1.41
1.69
2.68
4.34
6.35
8.18
9.34
9.56
8.87
7.57
6.05
4.62
3.43
2.45
1.57
0.70
-0.19
-0.99
-1.64
-2.06
-2.28
-2.40
-2.54
-2.78
-3.10
-3.40
-3.54
-3.42
-3.03
-2.48
-1.95
-1.59
-1.46
-1.48
-1.49
-1.32
-0.83
0.02
1.20
2.64
4.23
5.86
7.45
8.89
10.11
11.03
11.61
11.84
11.78
11.47
10.94
10.26
9.46
8.59
7.72
6.89
6.14
5.46
4.84
4.22
3.60
3.02
2.54
2.25
2.18
2.25
2.30
2.14
1.65
0.84
-0.16
-1.15
-1.97
-2.52
-2.78
-2.84
-2.84
-2.89
-3.13
-3.62
-4.44
-5.60
-7.10
-8.89
-10.90
-13.04
-15.25
-17.47
-19.71
-21.99
-24.33
-26.72
-29.09
-31.41
-33.67
-35.94
-38.33
-40.97
-43.87
-46.96
-50.00
-52.66
-54.51
-55.16
-54.28
-51.75
-47.71
-42.49
-36.55
-30.21
-23.66
-16.83
-9.52
-1.54
7.20
16.60
26.40
36.19
45.49
53.81
60.72
66.02
69.80
72.44
74.44
76.21
77.93
79.53
80.85
81.74
82.17
82.09
81.36
79.77
77.11
73.46
69.32
65.47
62.79
61.85
62.81
65.36
68.86
72.54
75.55
77.05
76.27
72.69
66.24
57.40
47.12
36.46
26.33
17.21
9.21
2.35
-3.13
-6.64
-7.33
-4.54
1.84
11.02
21.44
31.19
38.48
42.03
41.21
36.01
26.88
14.70
0.66
-13.81
-27.25
-38.54
-47.15
-53.30
-57.78
-61.54
-65.31
-69.33
-73.39
-77.03
-79.81
-81.49
-82.12
-81.92
-81.16
-80.10
-78.94
-77.88
-77.11
-76.82
-77.10
-77.91
-79.05
-80.17
-80.92
-81.03
-80.38
-78.99
-77.06
-74.85
-72.57
-70.23
-67.56
-64.01
-58.97
-52.10
-43.47
-33.75
-23.97
-15.28
-8.55
-4.15
-1.88
-1.05
-0.73
-0.00
1.85
5.15
9.86
15.64
21.97
28.30
34.12
38.99
42.63
44.92
46.02
46.29
46.23
46.29
46.72
47.52
48.50
49.47
50.34
51.23
52.35
53.97
56.27
59.29
62.85
66.59
69.89
72.05
72.38
70.45
66.25
60.23
53.13
45.65
38.07
30.11
21.05
10.12
-2.99
-17.89
-33.54
-48.56
-61.66
-71.98
-79.15
-83.20
-84.47
-83.42
-80.62
-76.74
-72.50
-68.59
-65.49
-63.44
-62.34
-61.85
-61.43
-60.57
-58.84
-56.10
-52.43
-48.11
-43.48
-38.87
-34.46
-30.31
-26.34
-22.36
-18.17
-13.63
-8.72
-3.63
1.35
5.89
9.80
13.04
15.76
18.23
20.62
23.01
25.32
27.31
28.70
29.28
28.96
27.87
26.30
24.60
23.06
21.83
20.89
20.18
19.61
19.22
19.04
19.13
19.44
19.85
20.19
20.36
20.33
20.18
20.01
19.90
19.87
19.90
19.95
20.01
20.09
20.22
20.42
20.72
21.07
21.37
21.40
20.86
19.44
16.89
13.09
8.13
2.36
-3.63
-9.13
-13.47
-16.22
-17.31
-17.04
-15.98
-14.75
-13.85
-13.51
-13.66
-14.00
-14.12
-13.62
-12.27
-10.04
-7.18
-4.09
-1.25
0.90
2.12
2.35
1.73
0.54
-0.91
-2.33
-3.54
-4.46
-5.10
-5.54
-5.82
-5.92
-5.78
-5.35
-4.68
-3.88
-3.11
-2.53
-2.20
-2.12
-2.18
-2.29
-2.35
-2.32
-2.19
-1.96
-1.66
-1.38
-1.18
-1.15
-1.31
-1.65
-2.07
-2.49
-2.80
-2.89
-2.61
-1.83
-0.47
1.35
3.36
5.20
6.59
7.46
8.01
8.55
9.39
10.66
12.30
14.10
15.77
17.03
17.62
17.30
15.88
13.22
9.37
4.58
-0.69
-5.81
-10.14
-13.14
-14.52
-14.31
-12.84
-10.61
-8.09
-5.54
-3.03
-0.41
2.50
5.83
9.53
13.43
17.18
20.39
22.70
23.78
23.36
21.26
17.43
11.97
5.19
-2.44
-10.33
-17.87
-24.52
-29.85
-33.57
-35.55
-35.80
-34.51
-32.04
-28.86
-25.38
-21.88
-18.39
-14.76
-10.87
-6.89
-3.31
-0.96
-0.74
-3.27
-8.70
-16.60
-26.01
-35.66
-44.13
-50.15
-52.83
-51.90
-47.79
-41.41
-33.93
-26.32
-19.28
-13.12
-7.98
-3.96
-1.11
0.68
1.83
3.06
5.20
8.83
14.10
20.67
27.89
35.05
41.58
47.08
51.31
54.07
55.19
54.57
52.20
48.31
43.33
37.83
32.38
27.39
23.00
19.12
15.50
11.87
8.11
4.31
0.74
-2.27
-4.37
-5.36
-5.22
-4.11
-2.23
0.27
3.45
7.62
13.27
20.90
30.72
42.40
54.96
66.73
75.78
80.35
79.35
72.67
61.16
46.38
30.05
13.71
-1.57
-15.19
-26.85
-36.51
-44.27
-50.45
-55.47
-59.80
-63.78
-67.51
-70.86
-73.61
-75.61
-76.86
-77.44
-77.40
-76.63
-74.83
-71.67
-66.93
-60.69
-53.40
-45.70
-38.34
-31.93
-26.82
-23.03
-20.29
-18.11
-15.91
-13.16
-9.48
-4.74
0.90
7.01
13.01
18.32
22.54
25.50
27.37
28.47
29.19
29.85
30.64
31.61
32.75
34.06
35.66
37.71
40.43
43.95
48.25
53.15
58.35
63.54
68.39
72.58
75.75
77.41
77.02
74.06
68.27
59.72
48.81
36.21
22.62
8.72
-4.94
-17.83
-29.43
-39.32
-47.26
-53.26
-57.62
-60.80
-63.23
-65.14
-66.50
-67.15
-66.98
-66.08
-64.77
-63.46
-62.44
-61.73
-61.04
-59.85
-57.64
-54.04
-48.93
-42.46
-35.04
-27.25
-19.75
-13.16
-7.84
-3.82
-0.78
1.88
4.73
8.14
12.18
16.63
21.14
25.42
29.22
32.33
34.55
35.64
35.45
33.97
31.45
28.29
24.94
21.71
18.72
16.00
13.56
11.54
10.19
9.83
10.74
13.09
16.95
22.26
28.81
36.16
43.60
50.10
54.51
55.80
53.35
47.16
37.84
26.46
14.24
2.31
-8.51
-17.76
-25.28
-31.11
-35.50
-38.74
-41.17
-43.11
-44.73
-46.07
-46.94
-47.07
-46.18
-44.10
-40.91
-36.88
-32.50
-28.28
-24.71
-22.01
-20.16
-18.81
-17.52
-15.84
-13.57
-10.83
-8.06
-5.79
-4.38
-3.86
-3.89
-3.94
-3.53
-2.45
-0.81
1.05
2.82
4.33
5.67
7.05
8.66
10.57
12.71
14.93
17.13
19.31
21.55
23.95
26.58
29.46
32.59
35.91
39.34
42.72
45.80
48.35
50.23
51.42
51.97
51.93
51.18
49.48
46.49
41.99
36.00
28.80
20.87
12.69
4.59
-3.23
-10.69
-17.68
-23.94
-29.16
-33.00
-35.32
-36.25
-36.15
-35.54
-34.83
-34.20
-33.60
-32.85
-31.78
-30.35
-28.64
-26.75
-24.80
-22.84
-21.02
-19.56
-18.74
-18.74
-19.55
-20.85
-22.19
-23.18
-23.65
-23.69
-23.53
-23.35
-23.17
-22.87
-22.31
-21.43
-20.25
-18.84
-17.23
-15.40
-13.29
-10.90
-8.31
-5.62
-2.90
-0.11
2.87
6.12
9.65
13.36
17.09
20.74
24.32
27.93
31.68
35.60
39.62
43.56
47.31
50.78
53.96
56.77
59.00
60.28
60.20
58.45
55.03
50.19
44.33
37.76
30.57
22.63
13.78
4.09
-6.07
-16.07
-25.17
-32.81
-38.69
-42.78
-45.18
-46.05
-45.56
-43.96
-41.60
-38.88
-36.18
-33.72
-31.50
-29.31
-26.98
-24.42
-21.77
-19.35
-17.48
-16.38
-16.06
-16.36
-17.08
-18.04
-19.16
-20.38
-21.65
-22.83
-23.73
-24.14
-23.97
-23.14
-21.66
-19.56
-16.92
-13.92
-10.85
-8.07
-5.89
-4.46
-3.68
-3.20
-2.60
-1.53
0.23
2.66
5.62
8.86
12.14
15.27
18.10
20.56
22.68
24.63
26.65
29.08
32.24
36.38
41.55
47.65
54.31
61.00
67.10
71.97
75.08
76.07
74.77
71.14
65.24
57.23
47.38
36.09
24.00
11.93
0.75
-8.75
-16.08
-21.14
-24.21
-25.80
-26.51
-26.84
-27.12
-27.51
-28.02
-28.65
-29.37
-30.17
-31.13
-32.39
-34.27
-37.15
-41.34
-46.87
-53.33
-59.87
-65.43
-69.00
-69.95
-68.06
-63.48
-56.56
-47.67
-37.26
-25.86
-14.13
-2.88
7.17
15.51
21.99
26.82
30.39
33.08
35.07
36.30
36.54
35.53
