initial_time_stamp,initial_time_stamp_mat,fsample,time,participant,conductance,conductance_z,phasic,phasic_z,tonic,tonic_z,bvp,heartrate,temperature,lat,long,altitude,distance,speed
1565944380,16-Aug-2019 10:33:00,4,0,1,0.139589,-1.61735056637184,0.0166479999999998,0.184186183999975,0.122941,-1.80153675037182,9.83,75.55,30.71,51.708185,4.806411,3.4,0,0
1565944380,16-Aug-2019 10:33:00,4,0.25,1,0.138309,-1.63151192602585,0.0153679999999998,0.170024824345964,0.122941,-1.80153675037182,13.64,75.62,30.71,51.708185,4.806411,3.4,0,0
1565944380,16-Aug-2019 10:33:00,4,0.5,1,0.139589,-1.61735056637184,0.0166479999999998,0.184186183999975,0.122941,-1.80153675037182,10.93,75.62,30.71,51.708185,4.806411,3.4,0,0
1565944380,16-Aug-2019 10:33:00,4,0.75,1,0.139589,-1.61735056637184,0.0166479999999998,0.184186183999975,0.122941,-1.80153675037182,-22.54,75.62,30.71,51.708185,4.806411,3.4,0,0
1565944380,16-Aug-2019 10:33:00,4,1,1,0.138309,-1.63151192602585,0.0153679999999998,0.170024824345964,0.122941,-1.80153675037182,2.59,75.62,30.71,51.708185,4.806411,3.4,0,0
1565944380,16-Aug-2019 10:33:00,4,1.25,1,0.138309,-1.63151192602585,0.0153679999999998,0.170024824345964,0.122941,-1.80153675037182,11.28,75.42,30.71,51.708185,4.806411,3.4,0,0
1565944380,16-Aug-2019 10:33:00,4,1.5,1,0.14087,-1.6031781431556,0.0179289999999998,0.198358607216216,0.122941,-1.80153675037182,-9.78,75.42,30.71,51.708185,4.806411,3.4,0,0
1565944380,16-Aug-2019 10:33:00,4,1.75,1,0.14087,-1.6031781431556,0.0179289999999998,0.198358607216216,0.122941,-1.80153675037182,3.91,75.42,30.71,51.708185,4.806411,3.4,0,0
1565944380,16-Aug-2019 10:33:00,4,2,1,0.139589,-1.61735056637184,0.0166479999999998,0.184186183999975,0.122941,-1.80153675037182,17.46,75.42,30.71,51.708185,4.806411,3.4,0,0
1565944380,16-Aug-2019 10:33:00,4,2.25,1,0.139589,-1.61735056637184,0.0166479999999998,0.184186183999975,0.122941,-1.80153675037182,0.34,75.28,30.71,51.708185,4.806411,3.4,0,0
1565944380,16-Aug-2019 10:33:00,4,2.5,1,0.14087,-1.6031781431556,0.0179289999999998,0.198358607216216,0.122941,-1.80153675037182,-30.49,75.28,30.71,51.708185,4.806411,3.4,0,0
1565944380,16-Aug-2019 10:33:00,4,2.75,1,0.14087,-1.6031781431556,0.0179289999999998,0.198358607216216,0.122941,-1.80153675037182,9.14,75.28,30.71,51.708185,4.806411,3.4,0,0
1565944380,16-Aug-2019 10:33:00,4,3,1,0.139589,-1.61735056637184,0.0166479999999998,0.184186183999975,0.122941,-1.80153675037182,12.73,75.28,30.73,51.708185,4.806411,3.4,0,0
1565944380,16-Aug-2019 10:33:00,4,3.25,1,0.14087,-1.6031781431556,0.0179289999999998,0.198358607216216,0.122941,-1.80153675037182,-3.42,75.13,30.73,51.708185,4.806411,3.4,0,0
1565944380,16-Aug-2019 10:33:00,4,3.5,1,0.14087,-1.6031781431556,0.0179289999999998,0.198358607216216,0.122941,-1.80153675037182,12.7,75.13,30.73,51.708185,4.806411,3.4,0,0
1565944380,16-Aug-2019 10:33:00,4,3.75,1,0.14087,-1.6031781431556,0.0179289999999998,0.198358607216216,0.122941,-1.80153675037182,8.17,75.13,30.73,51.708185,4.806411,3.4,0,0
1565944380,16-Aug-2019 10:33:00,4,4,1,0.139589,-1.61735056637184,0.0166479999999998,0.184186183999975,0.122941,-1.80153675037182,-10.16,75.13,30.71,51.708185,4.806411,3.4,0,0
1565944380,16-Aug-2019 10:33:00,4,4.25,1,0.139589,-1.61735056637184,0.0166479999999998,0.184186183999975,0.122941,-1.80153675037182,-11.62,75.02,30.71,51.708185,4.806411,3.4,0,0
1565944380,16-Aug-2019 10:33:00,4,4.5,1,0.138309,-1.63151192602585,0.0153679999999998,0.170024824345964,0.122941,-1.80153675037182,4.17,75.02,30.71,51.708185,4.806411,3.4,0,0
1565944380,16-Aug-2019 10:33:00,4,4.75,1,0.138309,-1.63151192602585,0.0153679999999998,0.170024824345964,0.122941,-1.80153675037182,-1.05,75.02,30.71,51.708185,4.806411,3.4,0,0
1565944380,16-Aug-2019 10:33:00,4,5,1,0.135748,-1.6598457088961,0.0128069999999998,0.141691041475714,0.122941,-1.80153675037182,-33.43,75.02,30.69,51.708185,4.806411,3.4,0,0
1565944380,16-Aug-2019 10:33:00,4,5.25,1,0.137028,-1.64568434924209,0.0140869999999998,0.155852401129724,0.122941,-1.80153675037182,14.87,74.87,30.69,51.708185,4.806411,3.4,0,0
1565944380,16-Aug-2019 10:33:00,4,5.5,1,0.138309,-1.63151192602585,0.0153679999999998,0.170024824345964,0.122941,-1.80153675037182,8.26,74.87,30.69,51.708185,4.806411,3.4,0,0
1565944380,16-Aug-2019 10:33:00,4,5.75,1,0.138309,-1.63151192602585,0.0153679999999998,0.170024824345964,0.122941,-1.80153675037182,-19.61,74.87,30.69,51.708185,4.806411,3.4,0,0
1565944380,16-Aug-2019 10:33:00,4,6,1,0.137028,-1.64568434924209,0.0140869999999998,0.155852401129724,0.122941,-1.80153675037182,10.93,74.87,30.67,51.708185,4.806411,3.4,0,0
1565944380,16-Aug-2019 10:33:00,4,6.25,1,0.139589,-1.61735056637184,0.0166479999999998,0.184186183999975,0.122941,-1.80153675037182,8.69,74.75,30.67,51.708185,4.806411,3.4,0,0
1565944380,16-Aug-2019 10:33:00,4,6.5,1,0.148554,-1.51816573098262,0.0256129999999998,0.283371019389198,0.122941,-1.80153675037182,-0.02,74.75,30.67,51.708185,4.806411,3.4,0,0
1565944380,16-Aug-2019 10:33:00,4,6.75,1,0.16136,-1.37648575306913,0.0384189999999998,0.425050997302683,0.122941,-1.80153675037182,-13.78,74.75,30.67,51.708185,4.806411,3.4,0,0
1565944380,16-Aug-2019 10:33:00,4,7,1,0.14087,-1.6031781431556,0.0179289999999998,0.198358607216216,0.122941,-1.80153675037182,-1.69,74.75,30.67,51.708185,4.806411,3.4,0,0
1565944380,16-Aug-2019 10:33:00,4,7.25,1,0.134467,-1.67401813211234,0.0115259999999998,0.127518618259473,0.122941,-1.80153675037182,-124.81,74.67,30.67,51.708185,4.806411,3.4,0,0
1565944380,16-Aug-2019 10:33:00,4,7.5,1,0.134467,-1.67401813211234,0.0115259999999998,0.127518618259473,0.122941,-1.80153675037182,-156.2,74.67,30.67,51.708185,4.806411,3.4,0,0
1565944380,16-Aug-2019 10:33:00,4,7.75,1,0.131906,-1.70235191498259,0.00896499999999979,0.0991848353892222,0.122941,-1.80153675037182,402.82,74.67,30.67,51.708185,4.806411,3.4,0,0
1565944380,16-Aug-2019 10:33:00,4,8,1,0.130625,-1.71652433819884,0.00768399999999979,0.0850124121729816,0.122941,-1.80153675037182,245.51,74.67,30.65,51.708185,4.806411,3.4,0,0
1565944380,16-Aug-2019 10:33:00,4,8.25,1,0.125502,-1.77320296750157,0.0025609999999998,0.0283337828702501,0.122941,-1.80153675037182,-78.61,74.55,30.65,51.708185,4.806411,3.4,0,0
1565944380,16-Aug-2019 10:33:00,4,8.5,1,0.122941,-1.80153675037182,-2.08166817117217e-16,-1.11022302462516e-15,0.122941,-1.80153675037182,-171.39,74.55,30.65,51.708185,4.806411,3.4,0,0
1565944380,16-Aug-2019 10:33:00,4,8.75,1,0.124222,-1.78736432715558,0.0012809999999998,0.0141724232162395,0.122941,-1.80153675037182,-105.8,74.55,30.65,51.708185,4.806411,3.4,0,0
1565944380,16-Aug-2019 10:33:00,4,9,1,0.129344,-1.73069676141508,0.00640299999999978,0.0708399889567413,0.122941,-1.80153675037182,117.38,74.55,30.65,51.708185,4.806411,3.4,0,0
1565944380,16-Aug-2019 10:33:00,4,9.25,1,0.128064,-1.74485812106909,0.00512299999999981,0.0566786293027308,0.122941,-1.80153675037182,85.31,74.48,30.65,51.708185,4.806411,3.4,0,0
1565944380,16-Aug-2019 10:33:00,4,9.5,1,0.129344,-1.73069676141508,0.00640299999999978,0.0708399889567413,0.122941,-1.80153675037182,53.28,74.48,30.65,51.708185,4.806411,3.4,0,0
1565944380,16-Aug-2019 10:33:00,4,9.75,1,0.133186,-1.68819055532858,0.0102449999999998,0.113346195043233,0.122941,-1.80153675037182,-185.08,74.48,30.65,51.708185,4.806411,3.4,0,0
1565944380,16-Aug-2019 10:33:00,4,10,1,0.134467,-1.67401813211234,0.0115259999999998,0.127518618259473,0.122941,-1.80153675037182,44.63,74.48,30.69,51.708185,4.806411,3.4,0,0
1565944380,16-Aug-2019 10:33:00,4,10.25,1,0.137028,-1.64568434924209,0.0140869999999998,0.155852401129724,0.122941,-1.80153675037182,-59.46,74.57,30.69,51.708185,4.806411,3.4,0,0
1565944380,16-Aug-2019 10:33:00,4,10.5,1,0.14087,-1.6031781431556,0.0179278716229688,0.198344021865119,0.122942128377031,-1.80152216502072,-275.12,74.57,30.69,51.708185,4.806411,3.4,0,0
1565944380,16-Aug-2019 10:33:00,4,10.75,1,0.144712,-1.56067193706911,0.0217649401184443,0.240789224996351,0.122947059881556,-1.80146116206546,277.18,74.57,30.69,51.708185,4.806411,3.4,0,0
1565944380,16-Aug-2019 10:33:00,4,11,1,0.143431,-1.57484436028535,0.0204720298715097,0.226475844610987,0.12295897012849,-1.80132020489634,-1.48,74.57,30.63,51.708185,4.806411,3.4,0,0
1565944380,16-Aug-2019 10:33:00,4,11.25,1,0.143431,-1.57484436028535,0.0204500076376172,0.226224917120043,0.122980992362383,-1.80106927740539,-137.72,74.68,30.63,51.708185,4.806411,3.4,0,0
1565944380,16-Aug-2019 10:33:00,4,11.5,1,0.139589,-1.61735056637184,0.0165730481568818,0.183332757196911,0.123015951843118,-1.80068332356875,100.47,74.68,30.63,51.708185,4.806411,3.4,0,0
1565944380,16-Aug-2019 10:33:00,4,11.75,1,0.137028,-1.64568434924209,0.0139617482256179,0.154457986013975,0.123066251774382,-1.80014233525607,-16.01,74.68,30.63,51.708185,4.806411,3.4,0,0
1565944380,16-Aug-2019 10:33:00,4,12,1,0.137028,-1.64568434924209,0.0138941597468326,0.153746641055939,0.123133840253167,-1.79943099029803,-38.7,74.68,30.67,51.708185,4.806411,3.4,0,0
1565944380,16-Aug-2019 10:33:00,4,12.25,1,0.138309,-1.63151192602585,0.0150887810001036,0.167026245171241,0.123220218999896,-1.79853817119709,-7.16,74.73,30.67,51.708185,4.806411,3.4,0,0
1565944380,16-Aug-2019 10:33:00,4,12.5,1,0.135748,-1.6598457088961,0.0124215277837917,0.1376107730832,0.123326472216208,-1.7974564819793,42.98,74.73,30.67,51.708185,4.806411,3.4,0,0
1565944380,16-Aug-2019 10:33:00,4,12.75,1,0.133186,-1.68819055532858,0.00973269621674337,0.107991246504008,0.123453303783257,-1.79618180183259,-3.29,74.73,30.67,51.708185,4.806411,3.4,0,0
1565944380,16-Aug-2019 10:33:00,4,13,1,0.133186,-1.68819055532858,0.00958492347211908,0.106522330018829,0.123601076527881,-1.79471288534741,35.85,74.73,30.67,51.708185,4.806411,3.4,0,0
1565944380,16-Aug-2019 10:33:00,4,13.25,1,0.133186,-1.68819055532858,0.0094161496509949,0.104860453640626,0.123769850349005,-1.79305100896921,-101.04,74.85,30.67,51.708185,4.806411,3.4,0,0
1565944380,16-Aug-2019 10:33:00,4,13.5,1,0.129344,-1.73069676141508,0.00538458231518603,0.0605028985428544,0.123959417684814,-1.79119965995793,49.03,74.85,30.67,51.708185,4.806411,3.4,0,0
1565944380,16-Aug-2019 10:33:00,4,13.75,1,0.131906,-1.70235191498259,0.0077366642824797,0.0868123483680079,0.12416933571752,-1.7891642633506,-124.42,74.85,30.67,51.708185,4.806411,3.4,0,0
1565944380,16-Aug-2019 10:33:00,4,14,1,0.166483,-1.3198071237664,0.0420840448023537,0.467144818743285,0.124398955197646,-1.78695194250969,3.53,74.85,30.67,51.708185,4.806411,3.4,0,0
1565944380,16-Aug-2019 10:33:00,4,14.25,1,0.157518,-1.41899195915563,0.0328705539844858,0.365579350054592,0.124647446015514,-1.78457130921022,136,74.9,30.67,51.708185,4.806411,3.4,0,0
1565944380,16-Aug-2019 10:33:00,4,14.5,1,0.143431,-1.57484436028535,0.0185171802381589,0.20718791936799,0.124913819761841,-1.78203227965334,65.43,74.9,30.67,51.708185,4.806411,3.4,0,0
1565944380,16-Aug-2019 10:33:00,4,14.75,1,0.142151,-1.58900571993936,0.0169540504376427,0.190340193276501,0.125196949562357,-1.77934591321586,56.95,74.9,30.67,51.708185,4.806411,3.4,0,0
1565944380,16-Aug-2019 10:33:00,4,15,1,0.147273,-1.53233815419886,0.0217774125230852,0.244186116931745,0.125495587476915,-1.7765242711306,-121.11,74.9,30.65,51.708185,4.806411,3.4,0,0
1565944380,16-Aug-2019 10:33:00,4,15.25,1,0.152396,-1.47565952489613,0.0265876202596842,0.297920767739621,0.125808379740316,-1.77358029263575,-469.86,74.92,30.65,51.708185,4.806411,3.4,0,0
1565944380,16-Aug-2019 10:33:00,4,15.5,1,0.153676,-1.46149816524212,0.0275421198996877,0.309029521192267,0.126133880100312,-1.77052768643438,61.84,74.92,30.65,51.708185,4.806411,3.4,0,0
1565944380,16-Aug-2019 10:33:00,4,15.75,1,0.151115,-1.48983194811237,0.0246444385165667,0.277548887459494,0.126470561483433,-1.76738083557186,-25.59,74.92,30.65,51.708185,4.806411,3.4,0,0
1565944380,16-Aug-2019 10:33:00,4,16,1,0.148554,-1.51816573098262,0.0217371738056151,0.24598898308971,0.126816826194385,-1.76415471407233,234.36,74.92,30.65,51.708185,4.806411,3.4,0,0
1565944380,16-Aug-2019 10:33:00,4,16.25,1,0.148554,-1.51816573098262,0.0213829851688408,0.242699082898181,0.127171014831159,-1.7608648138808,-1.73,75,30.65,51.708185,4.806411,3.4,0,0
1565944380,16-Aug-2019 10:33:00,4,16.5,1,0.148554,-1.51816573098262,0.0210225859236713,0.239361349854157,0.127531414076329,-1.75752708083678,16.64,75,30.65,51.708185,4.806411,3.4,0,0
1565944380,16-Aug-2019 10:33:00,4,16.75,1,0.148554,-1.51816573098262,0.0206577364945076,0.235992127580307,0.127896263505492,-1.75415785856293,34.68,75,30.65,51.708185,4.806411,3.4,0,0
1565944380,16-Aug-2019 10:33:00,4,17,1,0.148554,-1.51816573098262,0.0202902384635379,0.232608108307744,0.128263761536462,-1.75077383929036,-142.08,75,30.67,51.708185,4.806411,3.4,0,0
1565944380,16-Aug-2019 10:33:00,4,17.25,1,0.151115,-1.48983194811237,0.0224829293725918,0.257560072650624,0.128632070627408,-1.74739202076299,40.61,74.95,30.67,51.708185,4.806411,3.4,0,0
1565944380,16-Aug-2019 10:33:00,4,17.5,1,0.151115,-1.48983194811237,0.0221156781813463,0.254197720357051,0.128999321818654,-1.74402966846942,-0.02,74.95,30.67,51.708185,4.806411,3.4,0,0
1565944380,16-Aug-2019 10:33:00,4,17.75,1,0.148554,-1.51816573098262,0.0191903812990803,0.222538551561219,0.12936361870092,-1.74070428254384,-8.28,74.95,30.67,51.708185,4.806411,3.4,0,0
1565944380,16-Aug-2019 10:33:00,4,18,1,0.148554,-1.51816573098262,0.0188309591175876,0.219267837776061,0.129723040882412,-1.73743356875868,22.41,74.95,30.69,51.708185,4.806411,3.4,0,0
1565944380,16-Aug-2019 10:33:00,4,18.25,1,0.151115,-1.48983194811237,0.0210393529819799,0.244403464990855,0.13007564701802,-1.73423541310322,-5.07,74.93,30.69,51.708185,4.806411,3.4,0,0
1565944380,16-Aug-2019 10:33:00,4,18.5,1,0.151115,-1.48983194811237,0.0206955225440865,0.24129591139246,0.130419477455913,-1.73112785950483,21.18,74.93,30.69,51.708185,4.806411,3.4,0,0
1565944380,16-Aug-2019 10:33:00,4,18.75,1,0.148554,-1.51816573098262,0.0178014434501348,0.209963359321708,0.130752556549865,-1.72812909030433,6.26,74.93,30.69,51.708185,4.806411,3.4,0,0
1565944380,16-Aug-2019 10:33:00,4,19,1,0.149835,-1.50399330776638,0.0187621053204948,0.221264101378708,0.131072894679505,-1.72525740914509,-27.11,74.93,30.69,51.708185,4.806411,3.4,0,0
1565944380,16-Aug-2019 10:33:00,4,19.25,1,0.149835,-1.50399330776638,0.018456509984599,0.218537918210971,0.131378490015401,-1.72253122597735,19.9,74.88,30.69,51.708185,4.806411,3.4,0,0
1565944380,16-Aug-2019 10:33:00,4,19.5,1,0.151115,-1.48983194811237,0.0194476699388091,0.230137095803997,0.131667330061191,-1.71996904391637,-2.24,74.88,30.69,51.708185,4.806411,3.4,0,0
1565944380,16-Aug-2019 10:33:00,4,19.75,1,0.149835,-1.50399330776638,0.0178976069990691,0.213596139958786,0.131937393000931,-1.71758944772516,15.74,74.88,30.69,51.708185,4.806411,3.4,0,0
1565944380,16-Aug-2019 10:33:00,4,20,1,0.149835,-1.50399330776638,0.0176483511237426,0.21141778595471,0.132186648876257,-1.71541109372109,12.43,74.88,30.67,51.708185,4.806411,3.4,0,0
1565944380,16-Aug-2019 10:33:00,4,20.25,1,0.151115,-1.48983194811237,0.0187019393851374,0.22362075281775,0.132413060614863,-1.71345270093012,-31.3,74.92,30.67,51.708185,4.806411,3.4,0,0
1565944380,16-Aug-2019 10:33:00,4,20.5,1,0.152396,-1.47565952489613,0.019780771283957,0.236059400485979,0.132615228716043,-1.71171892538211,-9.94,74.92,30.67,51.708185,4.806411,3.4,0,0
1565944380,16-Aug-2019 10:33:00,4,20.75,1,0.149835,-1.50399330776638,0.017042213886047,0.206202458096475,0.132792786113953,-1.71019576586285,13.18,74.92,30.67,51.708185,4.806411,3.4,0,0
1565944380,16-Aug-2019 10:33:00,4,21,1,0.151115,-1.48983194811237,0.0181690516601525,0.219032145366085,0.132945948339847,-1.70886409347845,-25.97,74.92,30.71,51.708185,4.806411,3.4,0,0
1565944380,16-Aug-2019 10:33:00,4,21.25,1,0.152396,-1.47565952489613,0.0193207403997706,0.232044956973401,0.133075259600229,-1.70770448186953,2.7,74.95,30.71,51.708185,4.806411,3.4,0,0
1565944380,16-Aug-2019 10:33:00,4,21.5,1,0.149835,-1.50399330776638,0.0166535505452904,0.202705505220885,0.13318144945471,-1.70669881298726,-6.84,74.95,30.71,51.708185,4.806411,3.4,0,0
1565944380,16-Aug-2019 10:33:00,4,21.75,1,0.151115,-1.48983194811237,0.0178496480709543,0.215998753894718,0.133265351929046,-1.70583070200709,73.98,74.95,30.71,51.708185,4.806411,3.4,0,0
1565944380,16-Aug-2019 10:33:00,4,22,1,0.149835,-1.50399330776638,0.0165071401273678,0.201092194645824,0.133327859872632,-1.7050855024122,56.38,74.95,30.69,51.708185,4.806411,3.4,0,0
1565944380,16-Aug-2019 10:33:00,4,22.25,1,0.151115,-1.48983194811237,0.0177451007896148,0.214618225002414,0.133369899210385,-1.70445017311478,-47.12,75.03,30.69,51.708185,4.806411,3.4,0,0
1565944380,16-Aug-2019 10:33:00,4,22.5,1,0.151115,-1.48983194811237,0.0177225855764714,0.214081162542404,0.133392414423529,-1.70391311065477,12.78,75.03,30.69,51.708185,4.806411,3.4,0,0
1565944380,16-Aug-2019 10:33:00,4,22.75,1,0.151115,-1.48983194811237,0.017718639632492,0.213632034830852,0.133396360367508,-1.70346398294322,21.83,75.03,30.69,51.708185,4.806411,3.4,0,0
1565944380,16-Aug-2019 10:33:00,4,23,1,0.151115,-1.48983194811237,0.0177323023343414,0.213261628267549,0.133382697665659,-1.70309357637992,-39.3,75.03,30.69,51.708185,4.806411,3.4,0,0
1565944380,16-Aug-2019 10:33:00,4,23.25,1,0.153676,-1.46149816524212,0.0203236098800681,0.241295493944426,0.133352390119932,-1.70279365918654,39.15,75.18,30.69,51.708185,4.806411,3.4,0,0
1565944380,16-Aug-2019 10:33:00,4,23.5,1,0.152396,-1.47565952489613,0.019089596741065,0.226897335735157,0.133306403258935,-1.70255686063128,25.09,75.18,30.69,51.708185,4.806411,3.4,0,0
1565944380,16-Aug-2019 10:33:00,4,23.75,1,0.149835,-1.50399330776638,0.0165892964732046,0.198383257042282,0.133245703526795,-1.70237656480866,-22.43,75.18,30.69,51.708185,4.806411,3.4,0,0
1565944380,16-Aug-2019 10:33:00,4,24,1,0.151115,-1.48983194811237,0.0179437421672778,0.212414869297856,0.133171257832722,-1.70224681741022,22.96,75.18,30.73,51.708185,4.806411,3.4,0,0
1565944380,16-Aug-2019 10:33:00,4,24.25,1,0.152396,-1.47565952489613,0.0193119666967493,0.226502719071844,0.133084033303251,-1.70216224396797,1.72,75.3,30.73,51.708185,4.806411,3.4,0,0
1565944380,16-Aug-2019 10:33:00,4,24.5,1,0.151115,-1.48983194811237,0.0181300028519136,0.212286030072691,0.132984997148086,-1.70211797818506,-20.42,75.3,30.73,51.708185,4.806411,3.4,0,0
1565944380,16-Aug-2019 10:33:00,4,24.75,1,0.149835,-1.50399330776638,0.0169598834106394,0.198116291352694,0.132875116589361,-1.70210959911907,16.49,75.3,30.73,51.708185,4.806411,3.4,0,0
1565944380,16-Aug-2019 10:33:00,4,25,1,0.151115,-1.48983194811237,0.0183596411739491,0.212301128015719,0.132755358826051,-1.70213307612809,57.88,75.3,30.73,51.708185,4.806411,3.4,0,0
1565944380,16-Aug-2019 10:33:00,4,25.25,1,0.151115,-1.48983194811237,0.0184883089822927,0.212352772509203,0.132626691017707,-1.70218472062157,-23.25,75.38,30.73,51.708185,4.806411,3.4,0,0
1565944380,16-Aug-2019 10:33:00,4,25.5,1,0.151115,-1.48983194811237,0.018624919721407,0.212429195663193,0.132490080278593,-1.70226114377556,23.5,75.38,30.73,51.708185,4.806411,3.4,0,0
1565944380,16-Aug-2019 10:33:00,4,25.75,1,0.149835,-1.50399330776638,0.0174885063227143,0.19836591170864,0.132346493677286,-1.70235921947502,31.93,75.38,30.73,51.708185,4.806411,3.4,0,0
1565944380,16-Aug-2019 10:33:00,4,26,1,0.148554,-1.51816573098262,0.0163571017610064,0.184310320854661,0.132196898238994,-1.70247605183728,-27.08,75.38,30.73,51.708185,4.806411,3.4,0,0
1565944380,16-Aug-2019 10:33:00,4,26.25,1,0.149835,-1.50399330776638,0.0177927390509171,0.198615638983906,0.132042260949083,-1.70260894675028,20.63,75.47,30.73,51.708185,4.806411,3.4,0,0
1565944380,16-Aug-2019 10:33:00,4,26.5,1,0.151115,-1.48983194811237,0.0192314512429902,0.212923438816947,0.13188354875701,-1.70275538692932,11.48,75.47,30.73,51.708185,4.806411,3.4,0,0
1565944380,16-Aug-2019 10:33:00,4,26.75,1,0.149835,-1.50399330776638,0.0181132714197658,0.198919702290876,0.131721728580234,-1.70291301005725,50.41,75.47,30.73,51.708185,4.806411,3.4,0,0
1565944380,16-Aug-2019 10:33:00,4,27,1,0.143431,-1.57484436028535,0.0118732326920893,0.128235229341839,0.131557767307911,-1.70307958962719,-45.99,75.47,30.75,51.708185,4.806411,3.4,0,0
1565944380,16-Aug-2019 10:33:00,4,27.25,1,0.135748,-1.6598457088961,0.0043553681957352,0.0434073092571938,0.131392631804265,-1.7032530181533,61.82,75.63,30.75,51.708185,4.806411,3.4,0,0
1565944380,16-Aug-2019 10:33:00,4,27.5,1,0.131906,-1.70235191498259,0.000678711088368256,0.00107937747462139,0.131227288911632,-1.70343129245722,27.58,75.63,30.75,51.708185,4.806411,3.4,0,0
1565944380,16-Aug-2019 10:33:00,4,27.75,1,0.131906,-1.70235191498259,0.000843294546843232,0.00126058579076815,0.131062705453157,-1.70361250077336,207.74,75.63,30.75,51.708185,4.806411,3.4,0,0
1565944380,16-Aug-2019 10:33:00,4,28,1,0.137028,-1.64568434924209,0.00612815176481651,0.0581104622062085,0.130899848235183,-1.7037948114483,-189.49,75.63,30.75,51.708185,4.806411,3.4,0,0
1565944380,16-Aug-2019 10:33:00,4,28.25,1,0.143431,-1.57484436028535,0.0126913159506428,0.129132102751779,0.130739684049357,-1.70397646303713,263.81,75.87,30.75,51.708185,4.806411,3.4,0,0
1565944380,16-Aug-2019 10:33:00,4,28.5,1,0.144712,-1.56067193706911,0.0141288205166735,0.143483820457347,0.130583179483326,-1.70415575752646,44.01,75.87,30.75,51.708185,4.806411,3.4,0,0
1565944380,16-Aug-2019 10:33:00,4,28.75,1,0.144712,-1.56067193706911,0.0142806990405352,0.143659115294803,0.130431300959465,-1.70433105236391,-134.77,75.87,30.75,51.708185,4.806411,3.4,0,0
1565944380,16-Aug-2019 10:33:00,4,29,1,0.144712,-1.56067193706911,0.0144269850466382,0.143828814566052,0.130285014953362,-1.70450075163516,-102.47,75.87,30.77,51.708185,4.806411,3.4,0,0
1565944380,16-Aug-2019 10:33:00,4,29.25,1,0.145993,-1.54649951385287,0.0158477120128989,0.158163786445546,0.130145287987101,-1.70466330029842,59.05,76.1,30.77,51.708185,4.806411,3.4,0,0
1565944380,16-Aug-2019 10:33:00,4,29.5,1,0.145993,-1.54649951385287,0.0159799133766143,0.158317665278831,0.130013086623386,-1.7048171791317,63.44,76.1,30.77,51.708185,4.806411,3.4,0,0
1565944380,16-Aug-2019 10:33:00,4,29.75,1,0.143431,-1.57484436028535,0.0135416225395935,0.130116540019377,0.129889377460407,-1.70496090030473,41.04,76.1,30.77,51.708185,4.806411,3.4,0,0
1565944380,16-Aug-2019 10:33:00,4,30,1,0.144712,-1.56067193706911,0.01493687287264,0.144421066429093,0.12977512712736,-1.7050930034982,-19.09,76.1,30.75,51.708185,4.806411,3.4,0,0
1565944380,16-Aug-2019 10:33:00,4,30.25,1,0.154957,-1.44732574202588,0.0252856977194687,0.257886310476988,0.129671302280531,-1.70521205250286,1.57,76.23,30.75,51.708185,4.806411,3.4,0,0
1565944380,16-Aug-2019 10:33:00,4,30.5,1,0.154957,-1.44732574202588,0.0253785459915925,0.257988973749131,0.129578454008408,-1.70531471577501,1.01,76.23,30.75,51.708185,4.806411,3.4,0,0
1565944380,16-Aug-2019 10:33:00,4,30.75,1,0.147273,-1.53233815419886,0.0177765064949797,0.173057392533461,0.12949649350502,-1.70539554673232,-27.56,76.23,30.75,51.708185,4.806411,3.4,0,0
1565944380,16-Aug-2019 10:33:00,4,31,1,0.142151,-1.58900571993936,0.0127259888876931,0.116443403267823,0.129425011112307,-1.70544912320718,17.9,76.23,30.79,51.708185,4.806411,3.4,0,0
1565944380,16-Aug-2019 10:33:00,4,31.25,1,0.143431,-1.57484436028535,0.014067548668049,0.130626386322244,0.129363451331951,-1.70547074660759,-88.66,76.33,30.79,51.708185,4.806411,3.4,0,0
1565944380,16-Aug-2019 10:33:00,4,31.5,1,0.144712,-1.56067193706911,0.0154007928303469,0.144784677942741,0.129311207169653,-1.70545661501185,159.08,76.33,30.79,51.708185,4.806411,3.4,0,0
1565944380,16-Aug-2019 10:33:00,4,31.75,1,0.143431,-1.57484436028535,0.0141633304981698,0.130559450200401,0.12926766950183,-1.70540381048575,-288.78,76.33,30.79,51.708185,4.806411,3.4,0,0
1565944380,16-Aug-2019 10:33:00,4,32,1,0.143431,-1.57484436028535,0.0141987484576712,0.130465866220949,0.129232251542329,-1.7053102265063,-158.98,76.33,30.77,51.708185,4.806411,3.4,0,0
1565944380,16-Aug-2019 10:33:00,4,32.25,1,0.145993,-1.54649951385287,0.0167886003182424,0.158674967524213,0.129204399681758,-1.70517448137708,146.95,76.43,30.77,51.708185,4.806411,3.4,0,0
1565944380,16-Aug-2019 10:33:00,4,32.5,1,0.142151,-1.58900571993936,0.0129674029909262,0.115990113815691,0.129183597009074,-1.70499583375505,66.95,76.43,30.77,51.708185,4.806411,3.4,0,0
1565944380,16-Aug-2019 10:33:00,4,32.75,1,0.137028,-1.64568434924209,0.00785863696992603,0.059089756165277,0.129169363030074,-1.70477410540737,-20.14,76.43,30.77,51.708185,4.806411,3.4,0,0
1565944380,16-Aug-2019 10:33:00,4,33,1,0.135748,-1.6598457088961,0.00658674847446855,0.0446639034198737,0.129161251525531,-1.70450961231598,24.82,76.43,30.75,51.708185,4.806411,3.4,0,0
1565944380,16-Aug-2019 10:33:00,4,33.25,1,0.137028,-1.64568434924209,0.00786915239045805,0.0585187546079387,0.129158847609542,-1.70420310385003,-35.26,76.52,30.75,51.708185,4.806411,3.4,0,0
1565944380,16-Aug-2019 10:33:00,4,33.5,1,0.137028,-1.64568434924209,0.00786623544482079,0.0581713600479177,0.129161764555179,-1.70385570929001,5.33,76.52,30.75,51.708185,4.806411,3.4,0,0
1565944380,16-Aug-2019 10:33:00,4,33.75,1,0.135748,-1.6598457088961,0.00657835932002543,0.0436231820037458,0.129169640679975,-1.70346889089985,54.11,76.52,30.75,51.708185,4.806411,3.4,0,0
1565944380,16-Aug-2019 10:33:00,4,34,1,0.135748,-1.6598457088961,0.0065658635677916,0.0431986938807822,0.129182136432208,-1.70304440277689,70.5,76.52,30.75,51.708185,4.806411,3.4,0,0
1565944380,16-Aug-2019 10:33:00,4,34.25,1,0.138309,-1.63151192602585,0.00911006826348632,0.0710723287542385,0.129198931736514,-1.70258425478009,4.09,76.6,30.75,51.708185,4.806411,3.4,0,0
1565944380,16-Aug-2019 10:33:00,4,34.5,1,0.137028,-1.64568434924209,0.00780827638662226,0.0564063316721963,0.129219723613378,-1.70209068091429,-37.14,76.6,30.75,51.708282,4.806925,3,9.4,1.6
1565944380,16-Aug-2019 10:33:00,4,34.75,1,0.137028,-1.64568434924209,0.00778377593532462,0.0558817623794414,0.129244224064675,-1.70156611162153,-34.33,76.6,30.75,51.708282,4.806925,3,9.4,1.6
1565944380,16-Aug-2019 10:33:00,4,35,1,0.137028,-1.64568434924209,0.00775584179328012,0.055328800255344,0.12927215820672,-1.70101314949744,-16.51,76.6,30.75,51.708282,4.806925,3,9.4,1.6
1565944380,16-Aug-2019 10:33:00,4,35.25,1,0.137028,-1.64568434924209,0.0077247373719144,0.0547501987672163,0.129303262628086,-1.70043454800931,1.85,76.58,30.75,51.708282,4.806925,3,9.4,1.6
1565944380,16-Aug-2019 10:33:00,4,35.5,1,0.137028,-1.64568434924209,0.00769071605137889,0.0541488436030537,0.129337283948621,-1.69983319284515,17.93,76.58,30.75,51.708291,4.807001,3,14.8,2.1
1565944380,16-Aug-2019 10:33:00,4,35.75,1,0.135748,-1.6598457088961,0.00637402244304683,0.0393663766721684,0.129373977556953,-1.69921208556827,8.5,76.58,30.75,51.708291,4.807001,3,14.8,2.1
1565944380,16-Aug-2019 10:33:00,4,36,1,0.137028,-1.64568434924209,0.00761489349452751,0.0528899800505058,0.129413106505472,-1.6985743292926,-24.79,76.58,30.75,51.708291,4.807001,3,14.8,2.1
1565944380,16-Aug-2019 10:33:00,4,36.25,1,0.137028,-1.64568434924209,0.00757355945622867,0.052238766886666,0.129454440543771,-1.69792311612876,-2.14,76.72,30.75,51.708291,4.807001,3,14.8,2.1
1565944380,16-Aug-2019 10:33:00,4,36.5,1,0.134467,-1.67401813211234,0.00496924472646423,0.0232435840698053,0.129497755273536,-1.69726171618215,11.58,76.72,30.75,51.708307,4.807063,3,19.4,2.4
1565944380,16-Aug-2019 10:33:00,4,36.75,1,0.137028,-1.64568434924209,0.00748516859017315,0.0509091186689834,0.129542831409827,-1.69659346791108,-6.45,76.72,30.75,51.708307,4.807063,3,19.4,2.4
1565944380,16-Aug-2019 10:33:00,4,37,1,0.137028,-1.64568434924209,0.00743854586453294,0.0502374204347378,0.129589454135467,-1.69592176967683,0.11,76.72,30.71,51.708307,4.807063,3,19.4,2.4
1565944380,16-Aug-2019 10:33:00,4,37.25,1,0.137028,-1.64568434924209,0.00739058746313789,0.0495657230962683,0.129637412536862,-1.69525007233836,13.59,76.82,30.71,51.708307,4.807063,3,19.4,2.4
1565944380,16-Aug-2019 10:33:00,4,37.5,1,0.134467,-1.67401813211234,0.00478050088898052,0.0205637406500767,0.129686499111019,-1.69458187276242,1.49,76.82,30.71,51.70831,4.807129,3,24,2.7
1565944380,16-Aug-2019 10:33:00,4,37.75,1,0.135748,-1.6598457088961,0.00601149066520096,0.0340749992398843,0.129736509334799,-1.69392070813599,-47.26,76.82,30.71,51.70831,4.807129,3,24,2.7
1565944380,16-Aug-2019 10:33:00,4,38,1,0.134467,-1.67401813211234,0.0046797587114466,0.0192520188694556,0.129787241288553,-1.6932701509818,19.42,76.82,30.73,51.70831,4.807129,3,24,2.7
1565944380,16-Aug-2019 10:33:00,4,38.25,1,0.135748,-1.6598457088961,0.00590950467270818,0.0327880958939746,0.129838495327292,-1.69263380479008,29.47,76.82,30.73,51.70831,4.807129,3,24,2.7
1565944380,16-Aug-2019 10:33:00,4,38.5,1,0.134467,-1.67401813211234,0.00457692631567808,0.01799716991927,0.129890073684322,-1.69201530203161,-16.94,76.82,30.73,51.708311,4.807197,3,28.7,2.9
1565944380,16-Aug-2019 10:33:00,4,38.75,1,0.135748,-1.6598457088961,0.00580621978495854,0.0315725918164882,0.129941780215041,-1.69141830071259,8.67,76.82,30.73,51.708311,4.807197,3,28.7,2.9
1565944380,16-Aug-2019 10:33:00,4,39,1,0.137028,-1.64568434924209,0.00703457970837387,0.0451621302031777,0.129993420291626,-1.69084647944527,13.62,76.82,30.73,51.708311,4.807197,3,28.7,2.9
1565944380,16-Aug-2019 10:33:00,4,39.25,1,0.137028,-1.64568434924209,0.0069831993885543,0.0446191856585156,0.130044800611446,-1.69030353490061,-21.78,76.83,30.73,51.708311,4.807197,3,28.7,2.9
1565944380,16-Aug-2019 10:33:00,4,39.5,1,0.135748,-1.6598457088961,0.00565227097032148,0.0299474706797176,0.130095729029679,-1.68979317957582,21.57,76.83,30.73,51.70832,4.807266,3,33.6,4.8
1565944380,16-Aug-2019 10:33:00,4,39.75,1,0.138309,-1.63151192602585,0.0081629855869314,0.0578072138120451,0.130146014413069,-1.6893191398379,24.23,76.83,30.73,51.70832,4.807266,3,33.6,4.8
1565944380,16-Aug-2019 10:33:00,4,40,1,0.137028,-1.64568434924209,0.00683253348784649,0.0432008049669135,0.130195466512154,-1.68888515420901,-22.38,76.83,30.73,51.70832,4.807266,3,33.6,4.8
1565944380,16-Aug-2019 10:33:00,4,40.25,1,0.134467,-1.67401813211234,0.00422310415036761,0.0144768397514892,0.130243895849632,-1.68849497186383,5.45,76.87,30.73,51.70832,4.807266,3,33.6,4.8
1565944380,16-Aug-2019 10:33:00,4,40.5,1,0.137028,-1.64568434924209,0.0067368466981616,0.0424656748202312,0.130291153301838,-1.68815002406232,-4.63,76.87,30.73,51.708332,4.807325,3,37.8,4.6
1565944380,16-Aug-2019 10:33:00,4,40.75,1,0.137028,-1.64568434924209,0.00669084261176892,0.042164247688246,0.130337157388231,-1.68784859693034,-4.39,76.87,30.73,51.708332,4.807325,3,37.8,4.6
1565944380,16-Aug-2019 10:33:00,4,41,1,0.135748,-1.6598457088961,0.00536613067493893,0.0277423003821824,0.130381869325061,-1.68758800927829,-7.86,76.87,30.73,51.708332,4.807325,3,37.8,4.6
1565944380,16-Aug-2019 10:33:00,4,41.25,1,0.135748,-1.6598457088961,0.00532272162756478,0.0275196921970522,0.130425278372435,-1.68736540109316,-0.3,76.93,30.73,51.708332,4.807325,3,37.8,4.6
1565944380,16-Aug-2019 10:33:00,4,41.5,1,0.137028,-1.64568434924209,0.00656060693556468,0.0414936565083639,0.130467393064435,-1.68717800575046,43.66,76.93,30.73,51.708342,4.807385,2.9,42.1,4.5
1565944380,16-Aug-2019 10:33:00,4,41.75,1,0.137028,-1.64568434924209,0.0065197641766446,0.0413388827415901,0.130508235823355,-1.68702323198368,6.78,76.93,30.73,51.708342,4.807385,2.9,42.1,4.5
1565944380,16-Aug-2019 10:33:00,4,42,1,0.135748,-1.6598457088961,0.00520016046065286,0.0270529682750931,0.130547839539347,-1.6868986771712,-0.31,76.93,30.71,51.708342,4.807385,2.9,42.1,4.5
1565944380,16-Aug-2019 10:33:00,4,42.25,1,0.137028,-1.64568434924209,0.00644175469238906,0.0411177678468893,0.130586245307611,-1.68680211708898,-27.05,77.1,30.71,51.708342,4.807385,2.9,42.1,4.5
1565944380,16-Aug-2019 10:33:00,4,42.5,1,0.138309,-1.63151192602585,0.0076854991390076,0.0552195627190624,0.130623500860992,-1.68673148874491,-9.47,77.1,30.71,51.708354,4.807444,2.9,46.4,4.5
1565944380,16-Aug-2019 10:33:00,4,42.75,1,0.139589,-1.61735056637184,0.0089293405682086,0.069334305902798,0.130659659431791,-1.68668487227464,18.58,77.1,30.71,51.708354,4.807444,2.9,46.4,4.5
1565944380,16-Aug-2019 10:33:00,4,43,1,0.144712,-1.56067193706911,0.0140172211121208,0.125988536862091,0.130694778887879,-1.6866604739312,-9.28,77.1,30.71,51.708354,4.807444,2.9,46.4,4.5
1565944380,16-Aug-2019 10:33:00,4,43.25,1,0.149835,-1.50399330776638,0.0191060789483703,0.1826633029833,0.13072892105163,-1.68665661074968,5.98,77.35,30.71,51.708354,4.807444,2.9,46.4,4.5
1565944380,16-Aug-2019 10:33:00,4,43.5,1,0.148554,-1.51816573098262,0.0177918488535164,0.168505965965006,0.130762151146484,-1.68667169694762,13.12,77.35,30.71,51.708363,4.807502,2.9,50.5,4.4
1565944380,16-Aug-2019 10:33:00,4,43.75,1,0.148554,-1.51816573098262,0.0177594626630954,0.168538500964288,0.130794537336905,-1.68670423194691,81.53,77.35,30.71,51.708363,4.807502,2.9,50.5,4.4
1565944380,16-Aug-2019 10:33:00,4,44,1,0.149835,-1.50399330776638,0.0190088496602951,0.182759482087563,0.130826150339705,-1.68675278985394,-47.57,77.35,30.71,51.708363,4.807502,2.9,50.5,4.4
1565944380,16-Aug-2019 10:33:00,4,44.25,1,0.154957,-1.44732574202588,0.0240999369080485,0.239490268206153,0.130857063091952,-1.68681601023203,145.65,77.58,30.71,51.708363,4.807502,2.9,50.5,4.4
1565944380,16-Aug-2019 10:33:00,4,44.5,1,0.16008,-1.39064711272314,0.0291926495349567,0.296245477288177,0.130887350465043,-1.68689259001132,-79.46,77.58,30.71,51.708374,4.807562,2.8,54.9,4.3
1565944380,16-Aug-2019 10:33:00,4,44.75,1,0.16008,-1.39064711272314,0.0291629109827075,0.296334163674574,0.130917089017292,-1.68698127639772,-73.66,77.58,30.71,51.708374,4.807562,2.8,54.9,4.3
1565944380,16-Aug-2019 10:33:00,4,45,1,0.167763,-1.30564576411239,0.0368166432208985,0.38143509654555,0.130946356779102,-1.68708086065794,111.68,77.58,30.71,51.708374,4.807562,2.8,54.9,4.3
1565944380,16-Aug-2019 10:33:00,4,45.25,1,0.174167,-1.23479471159342,0.0431917669339626,0.452395461079325,0.130975233066037,-1.68719017267274,-96.49,77.85,30.71,51.708374,4.807562,2.8,54.9,4.3
1565944380,16-Aug-2019 10:33:00,4,45.5,1,0.18185,-1.14979336298267,0.050846201684056,0.537514713180747,0.131003798315944,-1.68730807616341,-22.21,77.85,30.71,51.708382,4.807615,2.7,58.7,4.2
1565944380,16-Aug-2019 10:33:00,4,45.75,1,0.171605,-1.2631395580259,0.0405728660531271,0.424293906482442,0.131032133946873,-1.68743346450834,-4.89,77.85,30.71,51.708382,4.807615,2.7,58.7,4.2
1565944380,16-Aug-2019 10:33:00,4,46,1,0.167763,-1.30564576411239,0.0367026777669052,0.381919492964384,0.131060322233095,-1.68756525707678,-28.58,77.85,30.71,51.708382,4.807615,2.7,58.7,4.2
1565944380,16-Aug-2019 10:33:00,4,46.25,1,0.167763,-1.30564576411239,0.0366745538031502,0.382056631903373,0.13108844619685,-1.68770239601576,89.97,78.18,30.71,51.708382,4.807615,2.7,58.7,4.2
1565944380,16-Aug-2019 10:33:00,4,46.5,1,0.172886,-1.24896713480966,0.0417694104861862,0.438876708624675,0.131116589513814,-1.68784384343433,-62.15,78.18,30.71,51.708395,4.807674,2.7,62.9,4.2
1565944380,16-Aug-2019 10:33:00,4,46.75,1,0.171605,-1.2631395580259,0.0404601635694683,0.424849020909845,0.131144836430532,-1.68798857893574,-61.07,78.18,30.71,51.708395,4.807674,2.7,62.9,4.2
1565944380,16-Aug-2019 10:33:00,4,47,1,0.166483,-1.3198071237664,0.0353097283077092,0.368328473688417,0.131173271692291,-1.68813559745482,-13.98,78.18,30.71,51.708395,4.807674,2.7,62.9,4.2
1565944380,16-Aug-2019 10:33:00,4,47.25,1,0.166483,-1.3198071237664,0.0352810195198844,0.368476783596228,0.131201980480116,-1.68828390736263,-30.54,78.28,30.71,51.708395,4.807674,2.7,62.9,4.2
1565944380,16-Aug-2019 10:33:00,4,47.5,1,0.165202,-1.33397954698264,0.0339709516442771,0.354452981822839,0.131231048355723,-1.68843252880548,101.37,78.28,30.71,51.708404,4.807736,2.6,67.3,4.2
1565944380,16-Aug-2019 10:33:00,4,47.75,1,0.16008,-1.39064711272314,0.0288194387865669,0.297933379526083,0.131260561213433,-1.68858049224923,64.9,78.28,30.71,51.708404,4.807736,2.6,67.3,4.2
1565944380,16-Aug-2019 10:33:00,4,48,1,0.16136,-1.37648575306913,0.0300693947618428,0.312241084134425,0.131290605238157,-1.68872683720356,10.26,78.28,30.71,51.708404,4.807736,2.6,67.3,4.2
1565944380,16-Aug-2019 10:33:00,4,48.25,1,0.16136,-1.37648575306913,0.0300387331313091,0.312384858034842,0.131321266868691,-1.68887061110398,-81.01,78.38,30.71,51.708404,4.807736,2.6,67.3,4.2
1565944380,16-Aug-2019 10:33:00,4,48.5,1,0.158799,-1.40481953593938,0.0274463671639552,0.284191332642564,0.131352632836045,-1.68901086858195,1.94,78.38,30.71,51.708412,4.807791,2.5,71.3,4.2
1565944380,16-Aug-2019 10:33:00,4,48.75,1,0.162641,-1.36231332985289,0.0312562098663181,0.3268333406882,0.131384790133682,-1.68914667054109,-51.21,78.38,30.71,51.708412,4.807791,2.5,71.3,4.2
1565944380,16-Aug-2019 10:33:00,4,49,1,0.163922,-1.34814090663665,0.0325041740824583,0.341136176478054,0.131417825917542,-1.68927708311471,-55.29,78.38,30.73,51.708412,4.807791,2.5,71.3,4.2
1565944380,16-Aug-2019 10:33:00,4,49.25,1,0.163922,-1.34814090663665,0.0324701725144824,0.341260270382628,0.131451827485518,-1.68940117701928,9.93,78.43,30.73,51.708412,4.807791,2.5,71.3,4.2
1565944380,16-Aug-2019 10:33:00,4,49.5,1,0.157518,-1.41899195915563,0.0260311177404737,0.270526067832283,0.131486882259526,-1.68951802698791,30.72,78.43,30.73,51.70842,4.807857,2.4,75.9,4.2
1565944380,16-Aug-2019 10:33:00,4,49.75,1,0.157518,-1.41899195915563,0.0259949222301572,0.27063475211812,0.131523077769843,-1.68962671127375,-34.4,78.43,30.73,51.70842,4.807857,2.4,75.9,4.2
1565944380,16-Aug-2019 10:33:00,4,50,1,0.156238,-1.43315331880964,0.0246774983585875,0.256572992405217,0.131560501641413,-1.68972631121485,-73.01,78.43,30.73,51.70842,4.807857,2.4,75.9,4.2
1565944380,16-Aug-2019 10:33:00,4,50.25,1,0.154957,-1.44732574202588,0.0233577584181055,0.242490168826965,0.131599241581895,-1.68981591085284,10.2,78.48,30.73,51.70842,4.807857,2.4,75.9,4.2
1565944380,16-Aug-2019 10:33:00,4,50.5,1,0.153676,-1.46149816524212,0.022036567146951,0.228393738950123,0.131639432853049,-1.68989190419224,14.98,78.48,30.73,51.708429,4.807912,2.3,79.8,4.2
1565944380,16-Aug-2019 10:33:00,4,50.75,1,0.154957,-1.44732574202588,0.0232757248788237,0.242621730770456,0.131681275121176,-1.68994747279633,5.2,78.48,30.73,51.708429,4.807912,2.3,79.8,4.2
1565944380,16-Aug-2019 10:33:00,4,51,1,0.153676,-1.46149816524212,0.0219510122301843,0.228477266282504,0.131724987769816,-1.68997543152462,50.09,78.48,30.73,51.708429,4.807912,2.3,79.8,4.2
1565944380,16-Aug-2019 10:33:00,4,51.25,1,0.143431,-1.57484436028535,0.0116602132262812,0.115124829114265,0.131770786773719,-1.68996918939962,17.43,78.53,30.73,51.708429,4.807912,2.3,79.8,4.2
1565944380,16-Aug-2019 10:33:00,4,51.5,1,0.144712,-1.56067193706911,0.0128931265203245,0.129251081404019,0.131818873479675,-1.68992301847313,23.88,78.53,30.73,51.708436,4.807962,2.3,83.4,4.1
1565944380,16-Aug-2019 10:33:00,4,51.75,1,0.137028,-1.64568434924209,0.00515857012265206,0.0441477258873761,0.131869429877348,-1.68983207512947,48.41,78.53,30.73,51.708436,4.807962,2.3,83.4,4.1
1565944380,16-Aug-2019 10:33:00,4,52,1,0.134467,-1.67401813211234,0.00254438266865223,0.0156742065065565,0.131922617331348,-1.6896923386189,97.15,78.53,30.71,51.708436,4.807962,2.3,83.4,4.1
1565944380,16-Aug-2019 10:33:00,4,52.25,1,0.134467,-1.67401813211234,0.00248842290972831,0.0154823951144927,0.131978577090272,-1.68950052722684,45.99,78.55,30.71,51.708436,4.807962,2.3,83.4,4.1
1565944380,16-Aug-2019 10:33:00,4,52.5,1,0.144712,-1.56067193706911,0.0126745683557945,0.128582076534128,0.132037431644206,-1.68925401360324,-4.94,78.55,30.71,51.708441,4.808016,2.3,87.2,4
1565944380,16-Aug-2019 10:33:00,4,52.75,1,0.157518,-1.41899195915563,0.0254187135739396,0.269958787214703,0.13209928642606,-1.68895074637033,39.39,78.55,30.71,51.708441,4.808016,2.3,87.2,4
1565944380,16-Aug-2019 10:33:00,4,53,1,0.148554,-1.51816573098262,0.0163897684110769,0.17042344887248,0.132164231588923,-1.6885891798551,-179.46,78.55,30.71,51.708441,4.808016,2.3,87.2,4
1565944380,16-Aug-2019 10:33:00,4,53.25,1,0.149835,-1.50399330776638,0.0176026562768601,0.184174904156444,0.13223234372314,-1.68816821192282,-5.46,78.53,30.71,51.708441,4.808016,2.3,87.2,4
1565944380,16-Aug-2019 10:33:00,4,53.5,1,0.151115,-1.48983194811237,0.0188113125507667,0.19785518116437,0.132303687449233,-1.68768712927674,15.89,78.53,30.71,51.708449,4.808072,2.2,91.1,4
1565944380,16-Aug-2019 10:33:00,4,53.75,1,0.153676,-1.46149816524212,0.0212976831380418,0.22564739419593,0.132378316861958,-1.68714555943805,570.98,78.53,30.71,51.708449,4.808072,2.2,91.1,4
1565944380,16-Aug-2019 10:33:00,4,54,1,0.154957,-1.44732574202588,0.0225007231784906,0.239217686605733,0.132456276821509,-1.68654342863161,-48.63,78.53,30.71,51.708449,4.808072,2.2,91.1,4
1565944380,16-Aug-2019 10:33:00,4,54.25,1,0.154957,-1.44732574202588,0.0224193959016815,0.238555182840576,0.132537604098318,-1.68588092486645,-199.44,78.47,30.71,51.708449,4.808072,2.2,91.1,4
1565944380,16-Aug-2019 10:33:00,4,54.5,1,0.152396,-1.47565952489613,0.0197736716173336,0.209498940679933,0.132622328382666,-1.68515846557606,-168.91,78.47,30.71,51.708456,4.808119,2.2,94.5,3.7
1565944380,16-Aug-2019 10:33:00,4,54.75,1,0.152396,-1.47565952489613,0.0196855268279075,0.208717144361302,0.132710473172092,-1.68437666925743,116.53,78.47,30.71,51.708456,4.808119,2.2,94.5,3.7
1565944380,16-Aug-2019 10:33:00,4,55,1,0.152396,-1.47565952489613,0.0195939434502896,0.207876805719439,0.13280205654971,-1.68353633061557,44.14,78.47,30.73,51.708456,4.808119,2.2,94.5,3.7
1565944380,16-Aug-2019 10:33:00,4,55.25,1,0.153676,-1.46149816524212,0.0207789081340864,0.221140233538327,0.132897091865914,-1.68263839878044,-7.27,78.38,30.73,51.708456,4.808119,2.2,94.5,3.7
1565944380,16-Aug-2019 10:33:00,4,55.5,1,0.158799,-1.40481953593938,0.0258034116650729,0.276864422277352,0.132995588334927,-1.68168395821674,-134.93,78.38,30.73,51.708466,4.808167,2.2,98,3.6
1565944380,16-Aug-2019 10:33:00,4,55.75,1,0.158799,-1.40481953593938,0.0257014484434484,0.275854676054115,0.133097551556552,-1.6806742119935,-33.82,78.38,30.73,51.708466,4.808167,2.2,98,3.6
1565944380,16-Aug-2019 10:33:00,4,56,1,0.156238,-1.43315331880964,0.0230350160276918,0.246457148312438,0.133202983972308,-1.67961046712207,-33.27,78.38,30.73,51.708466,4.808167,2.2,98,3.6
1565944380,16-Aug-2019 10:33:00,4,56.25,1,0.158799,-1.40481953593938,0.0254871147358601,0.273674585767156,0.13331188526414,-1.67849412170654,-34.5,78.43,30.73,51.708466,4.808167,2.2,98,3.6
1565944380,16-Aug-2019 10:33:00,4,56.5,1,0.16008,-1.39064711272314,0.0266557472971487,0.286679540959512,0.133424252702851,-1.67732665368266,61.64,78.43,30.73,51.708476,4.808216,2.2,101.5,3.6
1565944380,16-Aug-2019 10:33:00,4,56.75,1,0.163922,-1.34814090663665,0.0303819185474114,0.32796870431226,0.133540081452589,-1.67610961094891,19.11,78.43,30.73,51.708476,4.808216,2.2,101.5,3.6
1565944380,16-Aug-2019 10:33:00,4,57,1,0.171605,-1.2631395580259,0.0379456351631053,0.41170504469171,0.133659364836895,-1.67484460271761,34.16,78.43,30.71,51.708476,4.808216,2.2,101.5,3.6
1565944380,16-Aug-2019 10:33:00,4,57.25,1,0.169044,-1.29147334089615,0.0352619054288263,0.382059951038958,0.133782094571174,-1.67353329193511,29.69,78.53,30.71,51.708476,4.808216,2.2,101.5,3.6
1565944380,16-Aug-2019 10:33:00,4,57.5,1,0.165202,-1.33397954698264,0.0312937390341959,0.3381978416565,0.133908260965804,-1.67217738863914,-24.68,78.53,30.71,51.708485,4.808262,2.2,104.9,3.5
1565944380,16-Aug-2019 10:33:00,4,57.75,1,0.158799,-1.40481953593938,0.0247611468963993,0.26595910819789,0.134037853103601,-1.67077864413728,-42.36,78.53,30.71,51.708485,4.808262,2.2,104.9,3.5
1565944380,16-Aug-2019 10:33:00,4,58,1,0.151115,-1.48983194811237,0.0169441410051339,0.179506897792681,0.134170858994866,-1.66933884590505,40.7,78.53,30.73,51.708485,4.808262,2.2,104.9,3.5
1565944380,16-Aug-2019 10:33:00,4,58.25,1,0.151115,-1.48983194811237,0.0168077342871432,0.178027865002464,0.134307265712857,-1.66785981311483,-0.89,78.53,30.73,51.708485,4.808262,2.2,104.9,3.5
1565944380,16-Aug-2019 10:33:00,4,58.5,1,0.149835,-1.50399330776638,0.0153879404945784,0.162350085254542,0.134447059505422,-1.66634339302092,9.94,78.53,30.73,51.708494,4.808311,2.3,108.4,3.5
1565944380,16-Aug-2019 10:33:00,4,58.75,1,0.149835,-1.50399330776638,0.0152447741024348,0.160798149753401,0.134590225897565,-1.66479145751978,-101.57,78.53,30.73,51.708494,4.808311,2.3,108.4,3.5
1565944380,16-Aug-2019 10:33:00,4,59,1,0.147273,-1.53233815419886,0.0125362502113724,0.13086774561721,0.134736749788628,-1.66320589981607,-210.28,78.53,30.73,51.708494,4.808311,2.3,108.4,3.5
1565944380,16-Aug-2019 10:33:00,4,59.25,1,0.149835,-1.50399330776638,0.0149483844686885,0.157595324022118,0.134886615531312,-1.6615886317885,-56.89,78.52,30.73,51.708494,4.808311,2.3,108.4,3.5
1565944380,16-Aug-2019 10:33:00,4,59.5,1,0.151115,-1.48983194811237,0.0160751929992706,0.170109633568921,0.135039807000729,-1.65994158168129,114.79,78.52,30.73,51.708504,4.808358,2.3,111.8,3.5
1565944380,16-Aug-2019 10:33:00,4,59.75,1,0.152396,-1.47565952489613,0.0171996923452736,0.182607167184929,0.135196307654726,-1.65826669208106,151.8,78.52,30.73,51.708504,4.808358,2.3,111.8,3.5
1565944380,16-Aug-2019 10:33:00,4,60,1,0.151115,-1.48983194811237,0.0157588994134117,0.166733970031393,0.135356100586588,-1.65656591814376,56.37,78.52,30.73,51.708504,4.808358,2.3,111.8,3.5
1565944380,16-Aug-2019 10:33:00,4,60.25,1,0.156238,-1.43315331880964,0.0207188314289138,0.221687907231229,0.135519168571086,-1.65484122604086,-71.78,78.53,30.73,51.708504,4.808358,2.3,111.8,3.5
1565944380,16-Aug-2019 10:33:00,4,60.5,1,0.153676,-1.46149816524212,0.0179894096723104,0.191579522967126,0.13568659032769,-1.65307768820924,160.16,78.53,30.73,51.708513,4.808412,2.3,115.7,3.5
1565944380,16-Aug-2019 10:33:00,4,60.75,1,0.152396,-1.47565952489613,0.0165350673560273,0.175580907942626,0.135860932643973,-1.65124043283875,-32.47,78.53,30.73,51.708513,4.808412,2.3,115.7,3.5
1565944380,16-Aug-2019 10:33:00,4,61,1,0.151115,-1.48983194811237,0.0150697784424833,0.159460733854768,0.136045221557517,-1.64929268196714,-18.34,78.53,30.71,51.708513,4.808412,2.3,115.7,3.5
1565944380,16-Aug-2019 10:33:00,4,61.25,1,0.149835,-1.50399330776638,0.0135925903574249,0.14320850192625,0.136242409642575,-1.64720180969263,-21.43,78.8,30.71,51.708513,4.808412,2.3,115.7,3.5
1565944380,16-Aug-2019 10:33:00,4,61.5,1,0.149835,-1.50399330776638,0.0133798827044221,0.14094769817883,0.136455117295578,-1.64494100594521,-68.05,78.8,30.71,51.708521,4.808459,2.3,119.1,3.5
1565944380,16-Aug-2019 10:33:00,4,61.75,1,0.149835,-1.50399330776638,0.0131494766024751,0.138496063756659,0.136685523397525,-1.64248937152304,-40.2,78.8,30.71,51.708521,4.808459,2.3,119.1,3.5
1565944380,16-Aug-2019 10:33:00,4,62,1,0.151115,-1.48983194811237,0.0141796643312439,0.149999543621726,0.136935335668756,-1.63983149173409,-1.94,78.8,30.71,51.708521,4.808459,2.3,119.1,3.5
1565944380,16-Aug-2019 10:33:00,4,62.25,1,0.153676,-1.46149816524212,0.016470198038311,0.175458706946378,0.137205801961689,-1.63695687218849,22.55,79.1,30.71,51.708521,4.808459,2.3,119.1,3.5
1565944380,16-Aug-2019 10:33:00,4,62.5,1,0.154957,-1.44732574202588,0.0174592588753549,0.186533631064381,0.137497741124645,-1.63385937309026,38.2,79.1,30.71,51.708531,4.808508,2.3,122.6,3.5
1565944380,16-Aug-2019 10:33:00,4,62.75,1,0.156238,-1.43315331880964,0.0184264181786775,0.197383368013385,0.137811581821322,-1.63053668682302,6.02,79.1,30.71,51.708531,4.808508,2.3,122.6,3.5
1565944380,16-Aug-2019 10:33:00,4,63,1,0.158799,-1.40481953593938,0.0206515968608544,0.222170334217567,0.138147403139146,-1.62698987015695,26.93,79.1,30.73,51.708531,4.808508,2.3,122.6,3.5
1565944380,16-Aug-2019 10:33:00,4,63.25,1,0.162641,-1.36231332985289,0.0241360261535936,0.260909600707957,0.138504973846406,-1.62322293056085,-0.98,79.43,30.73,51.708531,4.808508,2.3,122.6,3.5
1565944380,16-Aug-2019 10:33:00,4,63.5,1,0.158799,-1.40481953593938,0.0199152111762985,0.214422926323254,0.138883788823702,-1.61924246226264,37.97,79.43,30.73,51.708538,4.808553,2.3,125.8,3.5
1565944380,16-Aug-2019 10:33:00,4,63.75,1,0.16008,-1.39064711272314,0.0207968979021918,0.224410214056965,0.139283102097808,-1.61505732678011,20.05,79.43,30.73,51.708538,4.808553,2.3,125.8,3.5
1565944380,16-Aug-2019 10:33:00,4,64,1,0.16136,-1.37648575306913,0.0216580436171907,0.234192619681267,0.139701956382809,-1.6106783727504,55.55,79.43,30.71,51.708538,4.808553,2.3,125.8,3.5
1565944380,16-Aug-2019 10:33:00,4,64.25,1,0.16136,-1.37648575306913,0.021220790726374,0.229632437252773,0.140139209273626,-1.60611819032191,-32.78,79.75,30.71,51.708538,4.808553,2.3,125.8,3.5
1565944380,16-Aug-2019 10:33:00,4,64.5,1,0.162641,-1.36231332985289,0.0220474436523194,0.239077566028638,0.140593556347681,-1.60139089588153,-58.01,79.75,30.71,51.708547,4.808602,2.2,129.4,3.5
1565944380,16-Aug-2019 10:33:00,4,64.75,1,0.163922,-1.34814090663665,0.0228584485291152,0.248371036747533,0.141063551470885,-1.59651194338419,-25.85,79.75,30.71,51.708547,4.808602,2.2,129.4,3.5
1565944380,16-Aug-2019 10:33:00,4,65,1,0.163922,-1.34814090663665,0.022374375392189,0.24335705236566,0.141547624607811,-1.59149795900231,46.55,79.75,30.73,51.708547,4.808602,2.2,129.4,3.5
1565944380,16-Aug-2019 10:33:00,4,65.25,1,0.16008,-1.39064711272314,0.0180359025787683,0.195719483491779,0.142044097421232,-1.58636659621492,-28.17,80.1,30.73,51.708547,4.808602,2.2,129.4,3.5
1565944380,16-Aug-2019 10:33:00,4,65.5,1,0.158799,-1.40481953593938,0.0162478030767249,0.176316872870893,0.142551196923275,-1.58113640881028,-16.54,80.1,30.73,51.708559,4.808661,2.2,133.6,3.6
1565944380,16-Aug-2019 10:33:00,4,65.75,1,0.156238,-1.43315331880964,0.0131709325852833,0.142673420778393,0.143067067414717,-1.57582673958803,-5.86,80.1,30.73,51.708559,4.808661,2.2,133.6,3.6
1565944380,16-Aug-2019 10:33:00,4,66,1,0.156238,-1.43315331880964,0.0126482190767755,0.137304304010511,0.143589780923224,-1.57045762282015,-1.56,80.1,30.73,51.708559,4.808661,2.2,133.6,3.6
1565944380,16-Aug-2019 10:33:00,4,66.25,1,0.156238,-1.43315331880964,0.0121206536729012,0.131896379960142,0.144117346327099,-1.56504969876978,-3.51,80.42,30.73,51.708559,4.808661,2.2,133.6,3.6
1565944380,16-Aug-2019 10:33:00,4,66.5,1,0.157518,-1.41899195915563,0.0128702826711775,0.140632179621821,0.144647717328823,-1.55962413877745,95.18,80.42,30.73,51.708572,4.808717,2.1,137.8,3.7
1565944380,16-Aug-2019 10:33:00,4,66.75,1,0.158799,-1.40481953593938,0.0136202005772728,0.149383043668857,0.145178799422727,-1.55420257960824,-89.48,80.42,30.73,51.708572,4.808717,2.1,137.8,3.7
1565944380,16-Aug-2019 10:33:00,4,67,1,0.157518,-1.41899195915563,0.0118095440167206,0.129815106759501,0.145708455983279,-1.54880706591513,-69.54,80.42,30.71,51.708572,4.808717,2.1,137.8,3.7
1565944380,16-Aug-2019 10:33:00,4,67.25,1,0.16008,-1.39064711272314,0.0138454864152461,0.152812887091905,0.146234513584754,-1.54345999981505,4.93,80.73,30.71,51.708572,4.808717,2.1,137.8,3.7
1565944380,16-Aug-2019 10:33:00,4,67.5,1,0.16136,-1.37648575306913,0.0146052333507984,0.161698343629418,0.146754766649202,-1.53818409669855,58.64,80.73,30.71,51.708581,4.808769,2.1,141.6,3.8
1565944380,16-Aug-2019 10:33:00,4,67.75,1,0.163922,-1.34814090663665,0.016655018492544,0.184861439865618,0.147266981507456,-1.53300234650227,71.4,80.73,30.71,51.708581,4.808769,2.1,141.6,3.8
1565944380,16-Aug-2019 10:33:00,4,68,1,0.16136,-1.37648575306913,0.0135911000527354,0.151452226699895,0.147768899947265,-1.52793797976903,-36.83,80.73,30.73,51.708581,4.808769,2.1,141.6,3.8
1565944380,16-Aug-2019 10:33:00,4,68.25,1,0.16008,-1.39064711272314,0.0118217576867072,0.132367325180472,0.148258242313293,-1.52301443790362,-14.59,81.05,30.73,51.708581,4.808769,2.1,141.6,3.8
1565944380,16-Aug-2019 10:33:00,4,68.5,1,0.157518,-1.41899195915563,0.0087852897924568,0.0992633883011746,0.148732710207543,-1.5182553474568,-7.12,81.05,30.73,51.708592,4.808825,2.1,145.6,4
1565944380,16-Aug-2019 10:33:00,4,68.75,1,0.156238,-1.43315331880964,0.00704801114259063,0.0805311784077729,0.149189988857409,-1.51368449721741,4.95,81.05,30.73,51.708592,4.808825,2.1,145.6,4
1565944380,16-Aug-2019 10:33:00,4,69,1,0.152396,-1.47565952489613,0.00276825080766582,0.0336662928989815,0.149627749192334,-1.50932581779511,6.28,81.05,30.73,51.708592,4.808825,2.1,145.6,4
1565944380,16-Aug-2019 10:33:00,4,69.25,1,0.154957,-1.44732574202588,0.00491335035021068,0.0578776220623551,0.150043649649789,-1.50520336408823,-14.53,81.35,30.73,51.708592,4.808825,2.1,145.6,4
1565944380,16-Aug-2019 10:33:00,4,69.5,1,0.154957,-1.44732574202588,0.0045216622468561,0.0540155578930903,0.150435337753144,-1.50134129991897,-194.94,81.35,30.73,51.708603,4.808877,2.1,149.4,4
1565944380,16-Aug-2019 10:33:00,4,69.75,1,0.156238,-1.43315331880964,0.00543754850976835,0.064610565758348,0.150800451490232,-1.49776388456798,-36.68,81.35,30.73,51.708603,4.808877,2.1,149.4,4
1565944380,16-Aug-2019 10:33:00,4,70,1,0.158799,-1.40481953593938,0.00766237948220849,0.0896759250342873,0.151136620517792,-1.49449546097367,154.37,81.35,30.73,51.708603,4.808877,2.1,149.4,4
1565944380,16-Aug-2019 10:33:00,4,70.25,1,0.16008,-1.39064711272314,0.00863853278622628,0.100913332667065,0.151441467213774,-1.49156044539021,92.81,81.45,30.73,51.708603,4.808877,2.1,149.4,4
1565944380,16-Aug-2019 10:33:00,4,70.5,1,0.158799,-1.40481953593938,0.0070849592497475,0.0841426575809217,0.151714040750252,-1.48896219352031,26.79,81.45,30.73,51.70861,4.808921,2.1,152.6,3.8
1565944380,16-Aug-2019 10:33:00,4,70.75,1,0.157518,-1.41899195915563,0.0055624612084057,0.0676844366355374,0.151955538791594,-1.48667639579116,3.05,81.45,30.73,51.70861,4.808921,2.1,152.6,3.8
1565944380,16-Aug-2019 10:33:00,4,71,1,0.157518,-1.41899195915563,0.00534984144420989,0.0656795652118807,0.15216815855579,-1.48467152436751,-2.83,81.45,30.73,51.70861,4.808921,2.1,152.6,3.8
1565944380,16-Aug-2019 10:33:00,4,71.25,1,0.158799,-1.40481953593938,0.0064445248650172,0.0780965559289633,0.152354475134983,-1.48291609186835,-10,81.52,30.73,51.70861,4.808921,2.1,152.6,3.8
1565944380,16-Aug-2019 10:33:00,4,71.5,1,0.16008,-1.39064711272314,0.00756288592523599,0.090733914030465,0.152517114074764,-1.48138102675361,16.72,81.52,30.73,51.708621,4.808998,2,158,3.3
1565944380,16-Aug-2019 10:33:00,4,71.75,1,0.157518,-1.41899195915563,0.0048594128976403,0.0610483055436741,0.15265858710236,-1.4800402646993,38.4,81.52,30.73,51.708621,4.808998,2,158,3.3
1565944380,16-Aug-2019 10:33:00,4,72,1,0.157518,-1.41899195915563,0.00473678263840951,0.0598787504644442,0.15278121736159,-1.47887070962007,-39.66,81.52,30.73,51.708621,4.808998,2,158,3.3
1565944380,16-Aug-2019 10:33:00,4,72.25,1,0.158799,-1.40481953593938,0.0059118870916593,0.0730324552168955,0.152887112908341,-1.47785199115628,12.37,81.72,30.73,51.708621,4.808998,2,158,3.3
1565944380,16-Aug-2019 10:33:00,4,72.5,1,0.156238,-1.43315331880964,0.00325983453218254,0.0438128554278872,0.152978165467817,-1.47696617423752,-7.59,81.72,30.73,51.708621,4.808998,2,158,0
1565944380,16-Aug-2019 10:33:00,4,72.75,1,0.16008,-1.39064711272314,0.00702393827972758,0.0855503626992191,0.153056061720272,-1.47619747542236,-27.93,81.72,30.73,51.708621,4.808998,2,158,0
1565944380,16-Aug-2019 10:33:00,4,73,1,0.16136,-1.37648575306913,0.00823769985448752,0.0990462503446217,0.153122300145512,-1.47553200341376,19.67,81.72,30.73,51.708621,4.808998,2,158,0
1565944380,16-Aug-2019 10:33:00,4,73.25,1,0.16008,-1.39064711272314,0.00690179031726657,0.0843104148571643,0.153178209682733,-1.47495752758031,14.6,81.87,30.73,51.708621,4.808998,2,158,0
1565944380,16-Aug-2019 10:33:00,4,73.5,1,0.16008,-1.39064711272314,0.00685503174058649,0.0838161608476806,0.153224968259414,-1.47446327357082,16.84,81.87,30.73,51.708632,4.809064,2,162.7,2.7
1565944380,16-Aug-2019 10:33:00,4,73.75,1,0.16008,-1.39064711272314,0.00681637976351504,0.0833926309029411,0.153263620236485,-1.47403974362609,37.05,81.87,30.73,51.708632,4.809064,2,162.7,2.7
1565944380,16-Aug-2019 10:33:00,4,74,1,0.158799,-1.40481953593938,0.0055039076405512,0.068859022951804,0.153295092359449,-1.47367855889119,-29.05,81.87,30.75,51.708632,4.809064,2,162.7,2.7
1565944380,16-Aug-2019 10:33:00,4,74.25,1,0.158799,-1.40481953593938,0.00547879190478609,0.0685527852025654,0.153320208095214,-1.47337232114195,-18.15,82.07,30.75,51.708632,4.809064,2,162.7,2.7
1565944380,16-Aug-2019 10:33:00,4,74.5,1,0.16008,-1.39064711272314,0.00674029961584893,0.0824673788520507,0.153339700384151,-1.4731144915752,-12.75,82.07,30.75,51.708632,4.809064,2,162.7,0
1565944380,16-Aug-2019 10:33:00,4,74.75,1,0.162641,-1.36231332985289,0.00928677709092299,0.110585954719221,0.153354222909077,-1.47289928457211,4.53,82.07,30.75,51.708632,4.809064,2,162.7,0
1565944380,16-Aug-2019 10:33:00,4,75,1,0.162641,-1.36231332985289,0.00927663998708894,0.110408244737733,0.153364360012911,-1.47272157459063,-12.04,82.07,30.73,51.708632,4.809064,2,162.7,0
1565944380,16-Aug-2019 10:33:00,4,75.25,1,0.16136,-1.37648575306913,0.00798936459569416,0.0960910614972106,0.153370635404306,-1.47257681456634,33.51,82.3,30.73,51.708632,4.809064,2,162.7,0
1565944380,16-Aug-2019 10:33:00,4,75.5,1,0.162641,-1.36231332985289,0.00926748021336499,0.110147634547494,0.153373519786635,-1.47246096440039,36.93,82.3,30.73,51.708641,4.809116,2,166.5,2.3
1565944380,16-Aug-2019 10:33:00,4,75.75,1,0.162641,-1.36231332985289,0.0092675624636796,0.110057098434547,0.15337343753632,-1.47237042828744,10.75,82.3,30.73,51.708641,4.809116,2,166.5,2.3
1565944380,16-Aug-2019 10:33:00,4,76,1,0.16136,-1.37648575306913,0.00798922745506231,0.0958162467222463,0.153370772544938,-1.47230199979138,-2.37,82.3,30.75,51.708641,4.809116,2,166.5,2.3
1565944380,16-Aug-2019 10:33:00,4,76.25,1,0.158799,-1.40481953593938,0.00543312667246901,0.0674332777713238,0.153365873327531,-1.47225281371071,18.65,82.6,30.75,51.708641,4.809116,2,166.5,2.3
1565944380,16-Aug-2019 10:33:00,4,76.5,1,0.156238,-1.43315331880964,0.00287894251197215,0.0390669850848391,0.153359057488028,-1.47222030389448,2.83,82.6,30.75,51.70864,4.809165,2.1,169.8,2
1565944380,16-Aug-2019 10:33:00,4,76.75,1,0.156238,-1.43315331880964,0.00288738437806149,0.0390488474634383,0.153350615621938,-1.47220216627307,27.92,82.6,30.75,51.70864,4.809165,2.1,169.8,2
1565944380,16-Aug-2019 10:33:00,4,77,1,0.154957,-1.44732574202588,0.00161618527315235,0.0248705844333563,0.153340814726848,-1.47219632645923,2.31,82.6,30.73,51.70864,4.809165,2.1,169.8,2
1565944380,16-Aug-2019 10:33:00,4,77.25,1,0.154957,-1.44732574202588,0.00162709881745676,0.0248751693283604,0.153329901182543,-1.47220091135424,-6.59,82.97,30.73,51.70864,4.809165,2.1,169.8,2
1565944380,16-Aug-2019 10:33:00,4,77.5,1,0.156238,-1.43315331880964,0.00291989664504058,0.0390609054546154,0.153318103354959,-1.47221422426425,-29.03,82.97,30.73,51.70864,4.809165,2.1,169.8,0
1565944380,16-Aug-2019 10:33:00,4,77.75,1,0.154957,-1.44732574202588,0.00165136612865174,0.0249089810669323,0.153305633871348,-1.47223472309281,-31.04,82.97,30.73,51.70864,4.809165,2.1,169.8,0
1565944380,16-Aug-2019 10:33:00,4,78,1,0.154957,-1.44732574202588,0.00166430839185328,0.0249352592032979,0.153292691608147,-1.47226100122917,-9.04,82.97,30.73,51.70864,4.809165,2.1,169.8,0
1565944380,16-Aug-2019 10:33:00,4,78.25,1,0.154957,-1.44732574202588,0.00167753657220149,0.0249660287734623,0.153279463427799,-1.47229177079934,25.14,83.28,30.73,51.70864,4.809165,2.1,169.8,0
1565944380,16-Aug-2019 10:33:00,4,78.5,1,0.156238,-1.43315331880964,0.00297187448947472,0.0391725313825526,0.153266125510525,-1.47232585019219,-5.06,83.28,30.73,51.70864,4.809165,2.1,169.8,0
1565944380,16-Aug-2019 10:33:00,4,78.75,1,0.156238,-1.43315331880964,0.00298515528145132,0.0392088319593753,0.153252844718549,-1.47236215076901,-1.01,83.28,30.73,51.70864,4.809165,2.1,169.8,0
1565944380,16-Aug-2019 10:33:00,4,79,1,0.154957,-1.44732574202588,0.00171722003377861,0.0250739210625379,0.153239779966221,-1.47239966308841,-20.19,83.28,30.71,51.70864,4.809165,2.1,169.8,0
1565944380,16-Aug-2019 10:33:00,4,79.25,1,0.154957,-1.44732574202588,0.00172991677607845,0.0251117050899134,0.153227083223922,-1.47243744711579,53.07,83.58,30.71,51.70864,4.809165,2.1,169.8,0
1565944380,16-Aug-2019 10:33:00,4,79.5,1,0.154957,-1.44732574202588,0.00174209960485031,0.0251488816172423,0.15321490039515,-1.47247462364312,-2.32,83.58,30.71,51.70863,4.809219,2,173.8,1.5
1565944380,16-Aug-2019 10:33:00,4,79.75,1,0.157518,-1.41899195915563,0.00431462791716108,0.0535184076138491,0.153203372082839,-1.47251036676947,-90.64,83.58,30.71,51.70863,4.809219,2,173.8,1.5
1565944380,16-Aug-2019 10:33:00,4,80,1,0.154957,-1.44732574202588,0.00176436574112748,0.0252181552852064,0.153192634258873,-1.47254389731108,-30.86,83.58,30.71,51.70863,4.809219,2,173.8,1.5
1565944380,16-Aug-2019 10:33:00,4,80.25,1,0.154957,-1.44732574202588,0.00177418115096431,0.025248735000192,0.153182818849036,-1.47257447702607,26.49,83.77,30.71,51.70863,4.809219,2,173.8,1.5
1565944380,16-Aug-2019 10:33:00,4,80.5,1,0.157518,-1.41899195915563,0.00434358492743755,0.0536076696904544,0.153174415072562,-1.47259962884608,-2.8,83.77,30.71,51.70863,4.809219,2,173.8,0
1565944380,16-Aug-2019 10:33:00,4,80.75,1,0.156238,-1.43315331880964,0.00306960418427077,0.0394615348556868,0.153168395815729,-1.47261485366532,13.95,83.77,30.71,51.70863,4.809219,2,173.8,0
1565944380,16-Aug-2019 10:33:00,4,81,1,0.157518,-1.41899195915563,0.00435212356766429,0.0536235922924628,0.153165876432336,-1.47261555144809,-63.59,83.77,30.71,51.70863,4.809219,2,173.8,0
1565944380,16-Aug-2019 10:33:00,4,81.25,1,0.158799,-1.40481953593938,0.00563106138535205,0.0677781226049303,0.153167938614648,-1.47259765854432,-60.04,83.92,30.71,51.70863,4.809219,2,173.8,0
1565944380,16-Aug-2019 10:33:00,4,81.5,1,0.157518,-1.41899195915563,0.00434245462891136,0.0535658558517935,0.153175545371089,-1.47255781500742,10.43,83.92,30.71,51.708589,4.809254,1.9,178.9,1.8
1565944380,16-Aug-2019 10:33:00,4,81.75,1,0.156238,-1.43315331880964,0.00304849438222021,0.0393400461444617,0.15318950561778,-1.4724933649541,20.44,83.92,30.71,51.708589,4.809254,1.9,178.9,1.8
1565944380,16-Aug-2019 10:33:00,4,82,1,0.156238,-1.43315331880964,0.0030275348108654,0.0392489833782919,0.153210465189135,-1.47240230218793,115.32,83.92,30.71,51.708589,4.809254,1.9,178.9,1.8
1565944380,16-Aug-2019 10:33:00,4,82.25,1,0.156238,-1.43315331880964,0.00299908862619999,0.0391298832861933,0.1532389113738,-1.47228320209583,-46.67,84.05,30.71,51.708589,4.809254,1.9,178.9,1.8
1565944380,16-Aug-2019 10:33:00,4,82.5,1,0.156238,-1.43315331880964,0.00296281612765203,0.0389818355080547,0.153275183872348,-1.47213515431769,-63.42,84.05,30.71,51.708549,4.80926,1.9,183.4,1.9
1565944380,16-Aug-2019 10:33:00,4,82.75,1,0.157518,-1.41899195915563,0.00419851168027413,0.0529657417250373,0.153319488319726,-1.47195770088066,89.11,84.05,30.71,51.708549,4.80926,1.9,183.4,1.9
1565944380,16-Aug-2019 10:33:00,4,83,1,0.157518,-1.41899195915563,0.00414608967101895,0.0527588217568826,0.153371910328981,-1.47175078091251,-79.46,84.05,30.73,51.708549,4.80926,1.9,183.4,1.9
1565944380,16-Aug-2019 10:33:00,4,83.25,1,0.157518,-1.41899195915563,0.00408557098033946,0.0525227226343101,0.153432429019661,-1.47151468178994,-15.93,84.17,30.73,51.708549,4.80926,1.9,183.4,1.9
1565944380,16-Aug-2019 10:33:00,4,83.5,1,0.157518,-1.41899195915563,0.00401707045205982,0.0522580370209904,0.15350092954794,-1.47124999617662,61.96,84.17,30.73,51.708515,4.809283,1.8,187.5,2.7
1565944380,16-Aug-2019 10:33:00,4,83.75,1,0.154957,-1.44732574202588,0.00137978554482079,0.0236318422905215,0.153577214455179,-1.4709575843164,76.76,84.17,30.73,51.708515,4.809283,1.8,187.5,2.7
1565944380,16-Aug-2019 10:33:00,4,84,1,0.156238,-1.43315331880964,0.00257698619051921,0.0374852221573472,0.153661013809481,-1.47063854096698,-3.98,84.17,30.73,51.708515,4.809283,1.8,187.5,2.7
1565944380,16-Aug-2019 10:33:00,4,84.25,1,0.157518,-1.41899195915563,0.00376600580589453,0.0513022072579281,0.153751994194105,-1.47029416641355,-59.01,84.28,30.73,51.708515,4.809283,1.8,187.5,2.7
1565944380,16-Aug-2019 10:33:00,4,84.5,1,0.156238,-1.43315331880964,0.00238823336727642,0.0367726222531572,0.153849766632724,-1.46992594106279,-22.92,84.28,30.73,51.708515,4.809283,1.8,187.5,0
1565944380,16-Aug-2019 10:33:00,4,84.75,1,0.156238,-1.43315331880964,0.00228410644563262,0.0363821843669394,0.153953893554367,-1.46953550317658,22.59,84.28,30.73,51.708515,4.809283,1.8,187.5,0
1565944380,16-Aug-2019 10:33:00,4,85,1,0.156238,-1.43315331880964,0.00217410509836233,0.0359713105482089,0.154063894901638,-1.46912462935784,46.69,84.28,30.75,51.708515,4.809283,1.8,187.5,0
1565944380,16-Aug-2019 10:33:00,4,85.25,1,0.156238,-1.43315331880964,0.00205874651963669,0.0355418986390736,0.154179253480363,-1.46869521744871,9.16,84.45,30.75,51.708515,4.809283,1.8,187.5,0
1565944380,16-Aug-2019 10:33:00,4,85.5,1,0.156238,-1.43315331880964,0.00193858035912745,0.0350959527330275,0.154299419640873,-1.46824927154266,-59.64,84.45,30.75,51.708464,4.809312,1.7,193.4,2.9
1565944380,16-Aug-2019 10:33:00,4,85.75,1,0.157518,-1.41899195915563,0.00309418462789302,0.0487969296939603,0.154423815372107,-1.46778888884959,-156.55,84.45,30.75,51.708464,4.809312,1.7,193.4,2.9
1565944380,16-Aug-2019 10:33:00,4,86,1,0.157518,-1.41899195915563,0.00296616211905684,0.0483242890288982,0.154551837880943,-1.46731624818452,12.54,84.45,30.77,51.708464,4.809312,1.7,193.4,2.9
1565944380,16-Aug-2019 10:33:00,4,86.25,1,0.158799,-1.40481953593938,0.00411613727927579,0.0620140639401203,0.154682862720724,-1.46683359987951,120,84.67,30.77,51.708464,4.809312,1.7,193.4,2.9
1565944380,16-Aug-2019 10:33:00,4,86.5,1,0.157518,-1.41899195915563,0.00270175347462973,0.0473512977868431,0.15481624652537,-1.46634325694247,226.97,84.67,30.77,51.708425,4.809339,1.6,198.3,3.2
1565944380,16-Aug-2019 10:33:00,4,86.75,1,0.156238,-1.43315331880964,0.0012866706014393,0.0326942684995102,0.154951329398561,-1.46584758730915,-39.06,84.67,30.77,51.708425,4.809339,1.6,198.3,3.2
1565944380,16-Aug-2019 10:33:00,4,87,1,0.158799,-1.40481953593938,0.00371156299862538,0.060529471113399,0.155087437001375,-1.46534900705278,-18.99,84.67,30.75,51.708425,4.809339,1.6,198.3,3.2
1565944380,16-Aug-2019 10:33:00,4,87.25,1,0.158799,-1.40481953593938,0.00357511762362597,0.0600304384938997,0.155223882376374,-1.46484997443328,-43.92,84.8,30.75,51.708425,4.809339,1.6,198.3,3.2
1565944380,16-Aug-2019 10:33:00,4,87.5,1,0.156238,-1.43315331880964,0.000878032458639461,0.0311996658723879,0.155359967541361,-1.46435298468202,-36.86,84.8,30.75,51.708396,4.809357,1.6,201.6,3.6
1565944380,16-Aug-2019 10:33:00,4,87.75,1,0.157518,-1.41899195915563,0.00202301511813391,0.0448686062757195,0.155494984881866,-1.46386056543134,-26.27,84.8,30.75,51.708396,4.809357,1.6,201.6,3.6
1565944380,16-Aug-2019 10:33:00,4,88,1,0.158799,-1.40481953593938,0.00317078163221751,0.0585557367697231,0.155628218367782,-1.46337527270911,-28.72,84.8,30.77,51.708396,4.809357,1.6,201.6,3.6
1565944380,16-Aug-2019 10:33:00,4,88.25,1,0.158799,-1.40481953593938,0.00304005538367108,0.0580801514889817,0.155758944616329,-1.46289968742837,-13.35,84.95,30.77,51.708396,4.809357,1.6,201.6,3.6
1565944380,16-Aug-2019 10:33:00,4,88.5,1,0.157518,-1.41899195915563,0.00163156642200429,0.0434444559106046,0.155886433577996,-1.46243641506623,5.75,84.95,30.77,51.708396,4.809357,1.6,201.6,0
1565944380,16-Aug-2019 10:33:00,4,88.75,1,0.158799,-1.40481953593938,0.00278905063710763,0.0571685468586318,0.156009949362892,-1.46198808279802,-81.26,84.95,30.77,51.708396,4.809357,1.6,201.6,0
1565944380,16-Aug-2019 10:33:00,4,89,1,0.158799,-1.40481953593938,0.00267024878664576,0.0567377982057085,0.156128751213354,-1.46155733414509,27.07,84.95,30.73,51.708396,4.809357,1.6,201.6,0
1565944380,16-Aug-2019 10:33:00,4,89.25,1,0.158799,-1.40481953593938,0.00255690588120652,0.0563272910147479,0.156242094118793,-1.46114682695413,122.02,85.12,30.73,51.708396,4.809357,1.6,201.6,0
1565944380,16-Aug-2019 10:33:00,4,89.5,1,0.158799,-1.40481953593938,0.0024497706471121,0.0559396956868135,0.156349229352888,-1.4607592316262,27.86,85.12,30.73,51.708351,4.809378,1.5,206.9,3.2
1565944380,16-Aug-2019 10:33:00,4,89.75,1,0.158799,-1.40481953593938,0.00234959505708204,0.05557769362536,0.156449404942918,-1.46039722956474,-67.19,85.12,30.73,51.708351,4.809378,1.5,206.9,3.2
1565944380,16-Aug-2019 10:33:00,4,90,1,0.158799,-1.40481953593938,0.00225713392017837,0.0552439758760972,0.156541866079822,-1.46006351181548,-39.49,85.12,30.75,51.708351,4.809378,1.5,206.9,3.2
1565944380,16-Aug-2019 10:33:00,4,90.25,1,0.157518,-1.41899195915563,0.000892144523545663,0.0407688187187534,0.156625855476454,-1.45976077787438,76.07,85.25,30.75,51.708351,4.809378,1.5,206.9,3.2
1565944380,16-Aug-2019 10:33:00,4,90.5,1,0.157518,-1.41899195915563,0.000817104056624746,0.0404977020722936,0.156700895943375,-1.45948966122792,35.4,85.25,30.75,51.708351,4.809378,1.5,206.9,0
1565944380,16-Aug-2019 10:33:00,4,90.75,1,0.157518,-1.41899195915563,0.000751048123208226,0.0402561030609072,0.156766951876792,-1.45924806221653,19.55,85.25,30.75,51.708351,4.809378,1.5,206.9,0
1565944380,16-Aug-2019 10:33:00,4,91,1,0.157518,-1.41899195915563,0.000693778882007917,0.040041181587507,0.156824221117992,-1.45903314074313,-121.64,85.25,30.77,51.708351,4.809378,1.5,206.9,0
1565944380,16-Aug-2019 10:33:00,4,91.25,1,0.157518,-1.41899195915563,0.00064498054978479,0.0398500673928226,0.156873019450215,-1.45884202654845,-24.57,85.42,30.77,51.708351,4.809378,1.5,206.9,0
1565944380,16-Aug-2019 10:33:00,4,91.5,1,0.16008,-1.39064711272314,0.00316628285911155,0.0680249415636323,0.156913717140888,-1.45867205428678,32.77,85.42,30.77,51.708351,4.809378,1.5,206.9,0
1565944380,16-Aug-2019 10:33:00,4,91.75,1,0.158799,-1.40481953593938,0.00185229535499246,0.0537012887553587,0.156946704645008,-1.45852082469474,67.06,85.42,30.77,51.708351,4.809378,1.5,206.9,0
1565944380,16-Aug-2019 10:33:00,4,92,1,0.157518,-1.41899195915563,0.000545625421668139,0.0393942448846019,0.156972374578332,-1.45838620404023,32.33,85.42,30.75,51.708351,4.809378,1.5,206.9,0
1565944380,16-Aug-2019 10:33:00,4,92.25,1,0.157518,-1.41899195915563,0.000526887292989109,0.0392743442341097,0.156991112707011,-1.45826630338973,-3.91,85.6,30.75,51.708351,4.809378,1.5,206.9,0
1565944380,16-Aug-2019 10:33:00,4,92.5,1,0.158799,-1.40481953593938,0.00179570611994359,0.0533399169280535,0.157003293880056,-1.45815945286744,-53.33,85.6,30.75,51.708304,4.80941,1.5,212.6,2.2
1565944380,16-Aug-2019 10:33:00,4,92.75,1,0.158799,-1.40481953593938,0.00178971937645275,0.0532446403260414,0.157009280623547,-1.45806417626543,-106.9,85.6,30.75,51.708304,4.80941,1.5,212.6,2.2
1565944380,16-Aug-2019 10:33:00,4,93,1,0.157518,-1.41899195915563,0.000508576874975297,0.0389872085785938,0.157009423125025,-1.45797916773422,1.13,85.6,30.77,51.708304,4.80941,1.5,212.6,2.2
1565944380,16-Aug-2019 10:33:00,4,93.25,1,0.157518,-1.41899195915563,0.000513940095555443,0.0389113118034481,0.157004059904445,-1.45790327095907,94.14,85.93,30.77,51.708304,4.80941,1.5,212.6,2.2
1565944380,16-Aug-2019 10:33:00,4,93.5,1,0.158799,-1.40481953593938,0.00180548121313809,0.0530159248231934,0.156993518786862,-1.45783546076258,49.83,85.93,30.77,51.708304,4.80941,1.5,212.6,0
1565944380,16-Aug-2019 10:33:00,4,93.75,1,0.16008,-1.39064711272314,0.00310188202956027,0.0671277142030955,0.15697811797044,-1.45777482692624,-18.68,85.93,30.77,51.708304,4.80941,1.5,212.6,0
1565944380,16-Aug-2019 10:33:00,4,94,1,0.157518,-1.41899195915563,0.000559832917263192,0.0387286008357739,0.156958167082737,-1.4577205599914,-109.15,85.93,30.77,51.708304,4.80941,1.5,212.6,0
1565944380,16-Aug-2019 10:33:00,4,94.25,1,0.16008,-1.39064711272314,0.00314603182688858,0.0670248260845736,0.156933968173111,-1.45767193880772,-44,86.28,30.77,51.708304,4.80941,1.5,212.6,0
1565944380,16-Aug-2019 10:33:00,4,94.5,1,0.158799,-1.40481953593938,0.00189318338096617,0.052808783678675,0.156905816619034,-1.45762831961806,20.02,86.28,30.77,51.708277,4.809427,1.4,215.8,1.8
1565944380,16-Aug-2019 10:33:00,4,94.75,1,0.158799,-1.40481953593938,0.00192499805991567,0.0527695905522583,0.156874001940084,-1.45758912649164,110.86,86.28,30.77,51.708277,4.809427,1.4,215.8,1.8
1565944380,16-Aug-2019 10:33:00,4,95,1,0.157518,-1.41899195915563,0.000679191478354407,0.0385618837838277,0.156838808521646,-1.45755384293945,15.24,86.28,30.77,51.708277,4.809427,1.4,215.8,1.8
1565944380,16-Aug-2019 10:33:00,4,95.25,1,0.16008,-1.39064711272314,0.00327948374574982,0.0668748918428796,0.15680051625425,-1.45752200456602,-25.93,86.67,30.77,51.708277,4.809427,1.4,215.8,1.8
1565944380,16-Aug-2019 10:33:00,4,95.5,1,0.158799,-1.40481953593938,0.00203959890384131,0.0526736566901853,0.156759401096159,-1.45749319262957,-68.69,86.67,30.77,51.708277,4.809427,1.4,215.8,0
1565944380,16-Aug-2019 10:33:00,4,95.75,1,0.157518,-1.41899195915563,0.000802264432870875,0.0384750692425764,0.156715735567129,-1.4574670283982,7.65,86.67,30.77,51.708277,4.809427,1.4,215.8,0
1565944380,16-Aug-2019 10:33:00,4,96,1,0.157518,-1.41899195915563,0.000848210818910566,0.0384512090481999,0.156669789181089,-1.45744316820383,111.55,86.67,30.77,51.708277,4.809427,1.4,215.8,0
1565944380,16-Aug-2019 10:33:00,4,96.25,1,0.16008,-1.39064711272314,0.0034581711751239,0.0667741863843485,0.156621828824876,-1.45742129910749,-11.87,87.03,30.77,51.708277,4.809427,1.4,215.8,0
1565944380,16-Aug-2019 10:33:00,4,96.5,1,0.16008,-1.39064711272314,0.00350788091046114,0.066754022377463,0.156572119089539,-1.45740113510061,-156.32,87.03,30.77,51.708241,4.80946,1.4,220.4,1.9
1565944380,16-Aug-2019 10:33:00,4,96.75,1,0.157518,-1.41899195915563,0.00099707743997296,0.0383904546201148,0.156520922560027,-1.45738241377574,-19.69,87.03,30.77,51.708241,4.80946,1.4,220.4,1.9
1565944380,16-Aug-2019 10:33:00,4,97,1,0.16008,-1.39064711272314,0.00361149993158563,0.0667177806858603,0.156468500068414,-1.457364893409,90.84,87.03,30.75,51.708241,4.80946,1.4,220.4,1.9
1565944380,16-Aug-2019 10:33:00,4,97.25,1,0.16136,-1.37648575306913,0.00494488908478857,0.0808625973339887,0.156415110915211,-1.45734835040312,27.76,87.43,30.75,51.708241,4.80946,1.4,220.4,1.9
1565944380,16-Aug-2019 10:33:00,4,97.5,1,0.16008,-1.39064711272314,0.00371898693723444,0.0666854643234278,0.156361013062766,-1.45733257704657,0.12,87.43,30.75,51.708216,4.80949,1.4,223.8,2.2
1565944380,16-Aug-2019 10:33:00,4,97.75,1,0.158799,-1.40481953593938,0.00249253669574501,0.0524978436103816,0.156306463304255,-1.45731737954977,-81.91,87.43,30.75,51.708216,4.80949,1.4,223.8,2.2
1565944380,16-Aug-2019 10:33:00,4,98,1,0.16008,-1.39064711272314,0.0038282825886492,0.0666554636008465,0.156251717411351,-1.45730257632399,1.21,87.43,30.77,51.708216,4.80949,1.4,223.8,2.2
1565944380,16-Aug-2019 10:33:00,4,98.25,1,0.16008,-1.39064711272314,0.00388296973676555,0.0666408837499619,0.156197030263234,-1.45728799647311,98.29,87.9,30.77,51.708216,4.80949,1.4,223.8,2.2
1565944380,16-Aug-2019 10:33:00,4,98.5,1,0.16008,-1.39064711272314,0.00393734410179902,0.0666263659800428,0.156142655898201,-1.45727347870319,13.24,87.9,30.77,51.70819,4.809522,1.4,227.5,2.5
1565944380,16-Aug-2019 10:33:00,4,98.75,1,0.16008,-1.39064711272314,0.00399115237467651,0.0666117573907565,0.156088847625323,-1.4572588701139,-95.49,87.9,30.77,51.70819,4.809522,1.4,227.5,2.5
1565944380,16-Aug-2019 10:33:00,4,99,1,0.158799,-1.40481953593938,0.00276314181958931,0.0524244889792316,0.156035858180411,-1.45724402491862,-10.53,87.9,30.77,51.70819,4.809522,1.4,227.5,2.5
1565944380,16-Aug-2019 10:33:00,4,99.25,1,0.16136,-1.37648575306913,0.00537606020158551,0.080743050495873,0.155983939798414,-1.45722880356501,79.2,88.3,30.77,51.70819,4.809522,1.4,227.5,2.5
1565944380,16-Aug-2019 10:33:00,4,99.5,1,0.157518,-1.41899195915563,0.00158465572330616,0.0382211128087211,0.155933344276694,-1.45721307196435,32.87,88.3,30.77,51.708163,4.809553,1.3,231.3,3.1
1565944380,16-Aug-2019 10:33:00,4,99.75,1,0.158799,-1.40481953593938,0.00291467696971326,0.0523771648767011,0.155884323030287,-1.45719670081609,-155.57,88.3,30.77,51.708163,4.809553,1.3,231.3,3.1
1565944380,16-Aug-2019 10:33:00,4,100,1,0.16008,-1.39064711272314,0.0042428728597986,0.0665324522927939,0.155837127140201,-1.45717956501594,16.19,88.3,30.79,51.708163,4.809553,1.3,231.3,3.1
1565944380,16-Aug-2019 10:33:00,4,100.25,1,0.16136,-1.37648575306913,0.00556799260439222,0.0806757900679849,0.155792007395608,-1.45716154313712,-43.75,88.6,30.79,51.708163,4.809553,1.3,231.3,3.1
1565944380,16-Aug-2019 10:33:00,4,100.5,1,0.157518,-1.41899195915563,0.00176890933243926,0.0381494272539036,0.155749090667561,-1.45714138640953,-62.03,88.6,30.79,51.708135,4.80958,1.3,234.9,3.2
1565944380,16-Aug-2019 10:33:00,4,100.75,1,0.158799,-1.40481953593938,0.00309068221177017,0.0522969601242045,0.15570831778823,-1.45711649606359,19.24,88.6,30.79,51.708135,4.80958,1.3,234.9,3.2
1565944380,16-Aug-2019 10:33:00,4,101,1,0.157518,-1.41899195915563,0.00184845717340287,0.0380921566199077,0.155669542826597,-1.45708411577553,-16.96,88.6,30.79,51.708135,4.80958,1.3,234.9,3.2
1565944380,16-Aug-2019 10:33:00,4,101.25,1,0.157518,-1.41899195915563,0.00188541317269228,0.0380497754438587,0.155632586827308,-1.45704173459948,-36.3,88.88,30.79,51.708135,4.80958,1.3,234.9,3.2
1565944380,16-Aug-2019 10:33:00,4,101.5,1,0.158799,-1.40481953593938,0.00320173386679981,0.0521676640676481,0.1555972661332,-1.45698720000703,42.59,88.88,30.79,51.708109,4.809596,1.3,237.9,3.5
1565944380,16-Aug-2019 10:33:00,4,101.75,1,0.157518,-1.41899195915563,0.00195459338629983,0.0379267680307169,0.1555634066137,-1.45691872718634,19.45,88.88,30.79,51.708109,4.809596,1.3,237.9,3.5
1565944380,16-Aug-2019 10:33:00,4,102,1,0.157518,-1.41899195915563,0.0019871498411608,0.0378429144724484,0.155530850158839,-1.45683487362807,20.14,88.88,30.79,51.708109,4.809596,1.3,237.9,3.5
1565944380,16-Aug-2019 10:33:00,4,102.25,1,0.157518,-1.41899195915563,0.00201854299880988,0.0377425451480293,0.15549945700119,-1.45673450430365,62.56,89.2,30.79,51.708109,4.809596,1.3,237.9,3.5
1565944380,16-Aug-2019 10:33:00,4,102.5,1,0.158799,-1.40481953593938,0.00332989414774651,0.0517972205166619,0.155469105852253,-1.45661675645605,43.37,89.2,30.79,51.708109,4.809596,1.3,237.9,0
1565944380,16-Aug-2019 10:33:00,4,102.75,1,0.16008,-1.39064711272314,0.00464030704665389,0.065833894265581,0.155439692953346,-1.45648100698873,28.37,89.2,30.79,51.708109,4.809596,1.3,237.9,0
1565944380,16-Aug-2019 10:33:00,4,103,1,0.16008,-1.39064711272314,0.00466886935672031,0.0656797305069841,0.15541113064328,-1.45632684323013,8.16,89.2,30.77,51.708109,4.809596,1.3,237.9,0
1565944380,16-Aug-2019 10:33:00,4,103.25,1,0.157518,-1.41899195915563,0.00213465423351447,0.0371620779113511,0.155383345766486,-1.45615403706698,55.34,89.48,30.77,51.708109,4.809596,1.3,237.9,0
1565944380,16-Aug-2019 10:33:00,4,103.5,1,0.157518,-1.41899195915563,0.00216172191000383,0.0369705630279678,0.155356278089996,-1.45596252218359,-12.89,89.48,30.77,51.708073,4.809621,1.3,242.3,3
1565944380,16-Aug-2019 10:33:00,4,103.75,1,0.157518,-1.41899195915563,0.0021881211881363,0.0367604149250198,0.155329878811864,-1.45575237408065,30.74,89.48,30.77,51.708073,4.809621,1.3,242.3,3
1565944380,16-Aug-2019 10:33:00,4,104,1,0.156238,-1.43315331880964,0.00093389080327691,0.0223704737415531,0.155304109196723,-1.45552379255119,-207.15,89.48,30.77,51.708073,4.809621,1.3,242.3,3
1565944380,16-Aug-2019 10:33:00,4,104.25,1,0.158799,-1.40481953593938,0.00352006065088895,0.0504575503788738,0.155278939349111,-1.45527708631826,-132.28,89.78,30.77,51.708073,4.809621,1.3,242.3,3
1565944380,16-Aug-2019 10:33:00,4,104.5,1,0.16008,-1.39064711272314,0.00482565287779582,0.0643655468466673,0.155254347122204,-1.45501265956981,-59.7,89.78,30.77,51.708073,4.809621,1.3,242.3,0
1565944380,16-Aug-2019 10:33:00,4,104.75,1,0.158799,-1.40481953593938,0.0035686828466274,0.0499114642181786,0.155230317153373,-1.45473100015756,91.15,89.78,30.77,51.708073,4.809621,1.3,242.3,0
1565944380,16-Aug-2019 10:33:00,4,105,1,0.157518,-1.41899195915563,0.00231115998466913,0.0354407100988348,0.155206840015331,-1.45443266925446,98.33,89.78,30.75,51.708073,4.809621,1.3,242.3,0
1565944380,16-Aug-2019 10:33:00,4,105.25,1,0.156238,-1.43315331880964,0.00105408852900629,0.0209649734809925,0.155183911470994,-1.45411829229063,139.53,90.02,30.75,51.708073,4.809621,1.3,242.3,0
1565944380,16-Aug-2019 10:33:00,4,105.5,1,0.16008,-1.39064711272314,0.00491846817953007,0.0631414382866409,0.15516153182047,-1.45378855100979,-59.83,90.02,30.75,51.708073,4.809621,1.3,242.3,0
1565944380,16-Aug-2019 10:33:00,4,105.75,1,0.16136,-1.37648575306913,0.00622029467058377,0.0769584234385325,0.155139705329416,-1.45344417650767,-112.62,90.02,30.75,51.708073,4.809621,1.3,242.3,0
1565944380,16-Aug-2019 10:33:00,4,106,1,0.158799,-1.40481953593938,0.00368056027103372,0.0482664071916414,0.155118439728966,-1.45308594313103,-59.14,90.02,30.77,51.708073,4.809621,1.3,242.3,0
1565944380,16-Aug-2019 10:33:00,4,106.25,1,0.158799,-1.40481953593938,0.00370125422153472,0.0478951271914823,0.155097745778465,-1.45271466313087,28.57,90.23,30.77,51.708073,4.809621,1.3,242.3,0
1565944380,16-Aug-2019 10:33:00,4,106.5,1,0.16008,-1.39064711272314,0.00500236311676452,0.061684069253497,0.155077636883235,-1.45233118197664,52.22,90.23,30.77,51.708073,4.809621,1.3,242.3,0
1565944380,16-Aug-2019 10:33:00,4,106.75,1,0.16136,-1.37648575306913,0.00630187123949116,0.0754506211805914,0.155058128760509,-1.45193637424973,14.87,90.23,30.77,51.708073,4.809621,1.3,242.3,0
1565944380,16-Aug-2019 10:33:00,4,107,1,0.16008,-1.39064711272314,0.00504076085251012,0.0608840273214,0.15503923914749,-1.45153114004454,-24.31,90.23,30.77,51.708073,4.809621,1.3,242.3,0
1565944380,16-Aug-2019 10:33:00,4,107.25,1,0.16008,-1.39064711272314,0.0050590124537408,0.0604692890914562,0.155020987546259,-1.4511164018146,2.01,90.43,30.77,51.708073,4.809621,1.3,242.3,0
1565944380,16-Aug-2019 10:33:00,4,107.5,1,0.16136,-1.37648575306913,0.00635660499912308,0.074207348539268,0.155003395000877,-1.4506931016084,-4.94,90.43,30.77,51.708046,4.809653,1.3,246,1.3
1565944380,16-Aug-2019 10:33:00,4,107.75,1,0.158799,-1.40481953593938,0.00381251609737102,0.0454426627077005,0.154986483902629,-1.45026219864709,-25.44,90.43,30.77,51.708046,4.809653,1.3,246,1.3
1565944380,16-Aug-2019 10:33:00,4,108,1,0.158799,-1.40481953593938,0.00382872218013425,0.0450051312621216,0.154970277819866,-1.44982466720151,32.78,90.43,30.75,51.708046,4.809653,1.3,246,1.3
1565944380,16-Aug-2019 10:33:00,4,108.25,1,0.16136,-1.37648575306913,0.0064051986506681,0.0728957416626306,0.154954801349332,-1.44938149473176,-15.45,90.5,30.75,51.708046,4.809653,1.3,246,1.3
1565944380,16-Aug-2019 10:33:00,4,108.5,1,0.16136,-1.37648575306913,0.00641992006154279,0.0724479274580134,0.154940079938457,-1.44893368052715,9.14,90.5,30.75,51.708046,4.809653,1.3,246,0
1565944380,16-Aug-2019 10:33:00,4,108.75,1,0.158799,-1.40481953593938,0.00387286022844743,0.0436626983236081,0.154926139771553,-1.44848223426299,11.52,90.5,30.75,51.708046,4.809653,1.3,246,0
1565944380,16-Aug-2019 10:33:00,4,109,1,0.16008,-1.39064711272314,0.00516699227862974,0.0573810617327823,0.15491300772137,-1.44802817445593,32.14,90.5,30.77,51.708046,4.809653,1.3,246,0
1565944380,16-Aug-2019 10:33:00,4,109.25,1,0.16136,-1.37648575306913,0.00645928873785148,0.0710867743017514,0.154900711262149,-1.44757252737089,-71.34,90.65,30.77,51.708046,4.809653,1.3,246,0
1565944380,16-Aug-2019 10:33:00,4,109.5,1,0.16008,-1.39064711272314,0.00519072160636411,0.056469213340109,0.154889278393636,-1.44711632606325,-39.36,90.65,30.77,51.708046,4.809653,1.3,246,0
1565944380,16-Aug-2019 10:33:00,4,109.75,1,0.158799,-1.40481953593938,0.00392026242528462,0.0418410736000319,0.154878737574715,-1.44666060953942,103.87,90.65,30.77,51.708046,4.809653,1.3,246,0
1565944380,16-Aug-2019 10:33:00,4,110,1,0.158799,-1.40481953593938,0.00392988233459102,0.0413868860817008,0.154869117665409,-1.44620642202109,122.25,90.65,30.77,51.708046,4.809653,1.3,246,0
1565944380,16-Aug-2019 10:33:00,4,110.25,1,0.16136,-1.37648575306913,0.00649955212378828,0.0692690592314378,0.154860447876212,-1.44575481230057,-160.79,90.77,30.77,51.708046,4.809653,1.3,246,0
1565944380,16-Aug-2019 10:33:00,4,110.5,1,0.16008,-1.39064711272314,0.00522698637695582,0.0546580472125078,0.154853013623044,-1.44530515993565,-108.18,90.77,30.77,51.708017,4.809678,1.3,249.7,1.1
1565944380,16-Aug-2019 10:33:00,4,110.75,1,0.158799,-1.40481953593938,0.00395155217955848,0.0400352736020988,0.154847447820442,-1.44485480954148,-10.87,90.77,30.77,51.708017,4.809678,1.3,249.7,1.1
1565944380,16-Aug-2019 10:33:00,4,111,1,0.16136,-1.37648575306913,0.00651550950783286,0.067915055412189,0.154844490492167,-1.44440080848132,87.48,90.77,30.75,51.708017,4.809678,1.3,249.7,1.1
1565944380,16-Aug-2019 10:33:00,4,111.25,1,0.16136,-1.37648575306913,0.00651513568953416,0.067454746206681,0.154844864310466,-1.44394049927581,29.27,90.95,30.75,51.708017,4.809678,1.3,249.7,1.1
1565944380,16-Aug-2019 10:33:00,4,111.5,1,0.158799,-1.40481953593938,0.00394978583849509,0.0386521549376697,0.154849214161505,-1.44347169087705,4.54,90.95,30.75,51.708017,4.809678,1.3,249.7,0
1565944380,16-Aug-2019 10:33:00,4,111.75,1,0.158799,-1.40481953593938,0.00394091838490906,0.0381731427501704,0.154858081615091,-1.44299267868956,9.62,90.95,30.75,51.708017,4.809678,1.3,249.7,0
1565944380,16-Aug-2019 10:33:00,4,112,1,0.16008,-1.39064711272314,0.00520810198523103,0.051855100756232,0.154871898014769,-1.44250221347938,-128.95,90.95,30.79,51.708017,4.809678,1.3,249.7,0
1565944380,16-Aug-2019 10:33:00,4,112.25,1,0.158799,-1.40481953593938,0.00390801286771053,0.0371799200021021,0.154890987132289,-1.44199945594149,-49.51,91.13,30.79,51.708017,4.809678,1.3,249.7,0
1565944380,16-Aug-2019 10:33:00,4,112.5,1,0.157518,-1.41899195915563,0.00260242760640675,0.022491970928493,0.154915572393593,-1.44148393008412,16.11,91.13,30.79,51.708017,4.809678,1.3,249.7,0
1565944380,16-Aug-2019 10:33:00,4,112.75,1,0.16008,-1.39064711272314,0.00513421403779482,0.0503083671103661,0.154945785962205,-1.44095547983351,-117.84,91.13,30.79,51.708017,4.809678,1.3,249.7,0
1565944380,16-Aug-2019 10:33:00,4,113,1,0.16008,-1.39064711272314,0.00509832176083608,0.0497671173295613,0.154981678239164,-1.44041423005271,46.23,91.13,30.79,51.708017,4.809678,1.3,249.7,0
1565944380,16-Aug-2019 10:33:00,4,113.25,1,0.158799,-1.40481953593938,0.00377577295411183,0.0350410160844572,0.155023227045888,-1.43986055202384,50.96,91.3,30.79,51.708017,4.809678,1.3,249.7,0
1565944380,16-Aug-2019 10:33:00,4,113.5,1,0.16008,-1.39064711272314,0.00500965385442489,0.0486479203415624,0.155070346145575,-1.43929503306471,86.45,91.3,30.79,51.708017,4.809678,1.3,249.7,0
1565944380,16-Aug-2019 10:33:00,4,113.75,1,0.16136,-1.37648575306913,0.00623710703036137,0.0622326967825282,0.155122892969639,-1.43871844985166,177.74,91.3,30.79,51.708017,4.809678,1.3,249.7,0
1565944380,16-Aug-2019 10:33:00,4,114,1,0.162641,-1.36231332985289,0.00746032447292666,0.0758184151689738,0.155180675527073,-1.43813174502187,60.4,91.3,30.75,51.708017,4.809678,1.3,249.7,0
1565944380,16-Aug-2019 10:33:00,4,114.25,1,0.16008,-1.39064711272314,0.00483654146923052,0.0468888939378855,0.155243458530769,-1.43753600666103,-34.46,91.48,30.75,51.708017,4.809678,1.3,249.7,0
1565944380,16-Aug-2019 10:33:00,4,114.5,1,0.16008,-1.39064711272314,0.00476903119935926,0.0462853376011794,0.155310968800641,-1.43693245032432,-99.67,91.48,30.75,51.708017,4.809678,1.3,249.7,0
1565944380,16-Aug-2019 10:33:00,4,114.75,1,0.16008,-1.39064711272314,0.00469709998714007,0.045675290555802,0.15538290001286,-1.43632240327895,58.96,91.48,30.75,51.708017,4.809678,1.3,249.7,0
1565944380,16-Aug-2019 10:33:00,4,115,1,0.16136,-1.37648575306913,0.00590108313464865,0.0592215376251455,0.155458916865351,-1.43570729069428,-101.52,91.48,30.77,51.708017,4.809678,1.3,249.7,0
1565944380,16-Aug-2019 10:33:00,4,115.25,1,0.16136,-1.37648575306913,0.00582134127375325,0.0586028704699713,0.155538658726247,-1.4350886235391,-18.68,91.65,30.77,51.708017,4.809678,1.3,249.7,0
1565944380,16-Aug-2019 10:33:00,4,115.5,1,0.16136,-1.37648575306913,0.0057382571733563,0.0579822349058281,0.155621742826644,-1.43446798797496,35.73,91.65,30.77,51.708017,4.809678,1.3,249.7,0
1565944380,16-Aug-2019 10:33:00,4,115.75,1,0.162641,-1.36231332985289,0.00693323294701079,0.0715337062077708,0.155707767052989,-1.43384703606066,58.11,91.65,30.77,51.708017,4.809678,1.3,249.7,0
1565944380,16-Aug-2019 10:33:00,4,116,1,0.16136,-1.37648575306913,0.00556368761160803,0.0567417245368353,0.155796312388392,-1.43322747760597,38.02,91.65,30.77,51.708017,4.809678,1.3,249.7,0
1565944380,16-Aug-2019 10:33:00,4,116.25,1,0.163922,-1.34814090663665,0.00803505495350165,0.0844701663956386,0.155886945046498,-1.43261107303229,-36.06,91.82,30.77,51.708017,4.809678,1.3,249.7,0
1565944380,16-Aug-2019 10:33:00,4,116.5,1,0.162641,-1.36231332985289,0.00666178166364376,0.0696862972630961,0.155979218336356,-1.43199962711599,-114.3,91.82,30.77,51.708017,4.809678,1.3,249.7,0
1565944380,16-Aug-2019 10:33:00,4,116.75,1,0.162641,-1.36231332985289,0.00656832570797541,0.0690816536522321,0.156072674292025,-1.43139498350513,79.04,91.82,30.77,51.708017,4.809678,1.3,249.7,0
1565944380,16-Aug-2019 10:33:00,4,117,1,0.16136,-1.37648575306913,0.00519315490349054,0.0543132668449342,0.156166845096509,-1.43079901991407,-40.45,91.82,30.77,51.708017,4.809678,1.3,249.7,0
1565944380,16-Aug-2019 10:33:00,4,117.25,1,0.162641,-1.36231332985289,0.00637974567406266,0.0679003140592542,0.156261254325937,-1.43021364391215,39.62,91.92,30.77,51.708017,4.809678,1.3,249.7,0
1565944380,16-Aug-2019 10:33:00,4,117.5,1,0.16136,-1.37648575306913,0.00500458196337242,0.0531550361637962,0.156355418036628,-1.42964078923293,13.99,91.92,30.77,51.708017,4.809678,1.3,249.7,0
1565944380,16-Aug-2019 10:33:00,4,117.75,1,0.16008,-1.39064711272314,0.00363115428511304,0.0384352998165993,0.156448845714887,-1.42908241253974,-65.51,91.92,30.77,51.708017,4.809678,1.3,249.7,0
1565944380,16-Aug-2019 10:33:00,4,118,1,0.158799,-1.40481953593938,0.0022579588931485,0.0237209546516723,0.156541041106851,-1.42854049059106,-58.28,91.92,30.77,51.708017,4.809678,1.3,249.7,0
1565944380,16-Aug-2019 10:33:00,4,118.25,1,0.16008,-1.39064711272314,0.0034484970564809,0.0373699050331311,0.156631502943519,-1.42801701775628,-41.59,92.05,30.77,51.708017,4.809678,1.3,249.7,0
1565944380,16-Aug-2019 10:33:00,4,118.5,1,0.16136,-1.37648575306913,0.00464027440484258,0.0510282509169688,0.156719725595157,-1.4275140039861,-32.88,92.05,30.77,51.708017,4.809678,1.3,249.7,0
1565944380,16-Aug-2019 10:33:00,4,118.75,1,0.16136,-1.37648575306913,0.0045548003765454,0.050547719809295,0.156805199623455,-1.42703347287843,-33.9,92.05,30.77,51.708017,4.809678,1.3,249.7,0
1565944380,16-Aug-2019 10:33:00,4,119,1,0.162641,-1.36231332985289,0.00575358775769072,0.0642641299869349,0.156887412242309,-1.42657745983983,59.54,92.05,30.77,51.708017,4.809678,1.3,249.7,0
1565944380,16-Aug-2019 10:33:00,4,119.25,1,0.163922,-1.34814090663665,0.00695615225931007,0.0780071039890962,0.15696584774069,-1.42614801062575,104.71,92.22,30.77,51.708017,4.809678,1.3,249.7,0
1565944380,16-Aug-2019 10:33:00,4,119.5,1,0.165202,-1.33397954698264,0.00816201214791426,0.0917676330785191,0.157039987852086,-1.42574718006116,-11.69,92.22,30.77,51.708017,4.809678,1.3,249.7,0
1565944380,16-Aug-2019 10:33:00,4,119.75,1,0.162641,-1.36231332985289,0.00553168792271025,0.0630637010664756,0.15710931207729,-1.42537703091937,101.33,92.22,30.77,51.708017,4.809678,1.3,249.7,0
1565944380,16-Aug-2019 10:33:00,4,120,1,0.16008,-1.39064711272314,0.00290670203358712,0.0343925202162723,0.157173297966413,-1.42503963293942,50.92,92.22,30.77,51.708017,4.809678,1.3,249.7,0
1565944380,16-Aug-2019 10:33:00,4,120.25,1,0.163922,-1.34814090663665,0.00669057863472369,0.0765961553283243,0.157231421365276,-1.42473706196498,-73.39,92.33,30.77,51.708017,4.809678,1.3,249.7,0
1565944380,16-Aug-2019 10:33:00,4,120.5,1,0.16008,-1.39064711272314,0.00279716769700336,0.0338323360370802,0.157282832302997,-1.42447944876022,-44.17,92.33,30.77,51.708017,4.809678,1.3,249.7,0
1565944380,16-Aug-2019 10:33:00,4,120.75,1,0.162641,-1.36231332985289,0.00531472706193439,0.0619728673232069,0.157326272938066,-1.4242861971761,0.12,92.33,30.77,51.708017,4.809678,1.3,249.7,0
1565944380,16-Aug-2019 10:33:00,4,121,1,0.162641,-1.36231332985289,0.00528058620715868,0.061863888257756,0.157360413792841,-1.42417721811065,19.07,92.33,30.77,51.708017,4.809678,1.3,249.7,0
1565944380,16-Aug-2019 10:33:00,4,121.25,1,0.16136,-1.37648575306913,0.00397597646223577,0.0476842647610483,0.157384023537764,-1.42417001783018,6.78,92.47,30.77,51.708017,4.809678,1.3,249.7,0
1565944380,16-Aug-2019 10:33:00,4,121.5,1,0.158799,-1.40481953593938,0.00140295266276583,0.0194593940562728,0.157396047337234,-1.42427892999566,-42.74,92.47,30.77,51.708017,4.809678,1.3,249.7,0
1565944380,16-Aug-2019 10:33:00,4,121.75,1,0.16136,-1.37648575306913,0.00396436421470225,0.0480293565047523,0.157395635785298,-1.42451510957389,-0.96,92.47,30.77,51.708017,4.809678,1.3,249.7,0
1565944380,16-Aug-2019 10:33:00,4,122,1,0.16136,-1.37648575306913,0.00397785212124246,0.0484010238033339,0.157382147878758,-1.42488677687247,-7.48,92.47,30.75,51.708017,4.809678,1.3,249.7,0
1565944380,16-Aug-2019 10:33:00,4,122.25,1,0.163922,-1.34814090663665,0.00656685897900652,0.0772586180097523,0.157355141020993,-1.42539952464641,74.85,92.52,30.75,51.708017,4.809678,1.3,249.7,0
1565944380,16-Aug-2019 10:33:00,4,122.5,1,0.16008,-1.39064711272314,0.00276564482136971,0.035409509378771,0.15731435517863,-1.42605662210192,208.68,92.52,30.75,51.708017,4.809678,1.3,249.7,0
1565944380,16-Aug-2019 10:33:00,4,122.75,1,0.16136,-1.37648575306913,0.00410030497441927,0.0503735412845572,0.157259695025581,-1.42685929435369,-28.58,92.52,30.75,51.708017,4.809678,1.3,249.7,0
1565944380,16-Aug-2019 10:33:00,4,123,1,0.16136,-1.37648575306913,0.00416878792349518,0.0513212191397641,0.157191212076505,-1.4278069722089,-105.87,92.52,30.75,51.708017,4.809678,1.3,249.7,0
1565944380,16-Aug-2019 10:33:00,4,123.25,1,0.16136,-1.37648575306913,0.00425091220225451,0.0524117598255771,0.157109087797745,-1.42889751289471,40.33,92.53,30.75,51.708017,4.809678,1.3,249.7,0
1565944380,16-Aug-2019 10:33:00,4,123.5,1,0.16136,-1.37648575306913,0.00434638187066488,0.053641641111285,0.157013618129335,-1.43012739418042,60.4,92.53,30.75,51.708017,4.809678,1.3,249.7,0
1565944380,16-Aug-2019 10:33:00,4,123.75,1,0.16136,-1.37648575306913,0.00445480044567803,0.0550061316874215,0.156905199554322,-1.43149188475656,-64.97,92.53,30.75,51.708017,4.809678,1.3,249.7,0
1565944380,16-Aug-2019 10:33:00,4,124,1,0.163922,-1.34814090663665,0.00713768330248452,0.0848442870100241,0.156784316697515,-1.43298519364668,-25.12,92.53,30.77,51.708017,4.809678,1.3,249.7,0
1565944380,16-Aug-2019 10:33:00,4,124.25,1,0.16136,-1.37648575306913,0.00470846863930185,0.0581148481150535,0.156651531360698,-1.43460060118419,49.62,92.62,30.77,51.708017,4.809678,1.3,249.7,0
1565944380,16-Aug-2019 10:33:00,4,124.5,1,0.162641,-1.36231332985289,0.00613352713055149,0.0740172439579705,0.156507472869449,-1.43633057381086,-2.44,92.62,30.77,51.708017,4.809678,1.3,249.7,0
1565944380,16-Aug-2019 10:33:00,4,124.75,1,0.162641,-1.36231332985289,0.00628817040215049,0.0758535348358551,0.15635282959785,-1.43816686468875,104.34,92.62,30.77,51.708017,4.809678,1.3,249.7,0
1565944380,16-Aug-2019 10:33:00,4,125,1,0.16136,-1.37648575306913,0.00517165845966364,0.0636148488069315,0.156188341540336,-1.44010060187607,18.53,92.62,30.75,51.708017,4.809678,1.3,249.7,0
1565944380,16-Aug-2019 10:33:00,4,125.25,1,0.16136,-1.37648575306913,0.00534520619139831,0.0656366125342147,0.156014793808602,-1.44212236560335,-162.63,92.67,30.75,51.708017,4.809678,1.3,249.7,0
1565944380,16-Aug-2019 10:33:00,4,125.5,1,0.162641,-1.36231332985289,0.00680798905754196,0.0819089261439274,0.155833010942458,-1.44422225599682,-23.73,92.67,30.75,51.708017,4.809678,1.3,249.7,0
1565944380,16-Aug-2019 10:33:00,4,125.75,1,0.162641,-1.36231332985289,0.0069971480649044,0.0840766225768561,0.155643851935096,-1.44638995242975,73.1,92.67,30.75,51.708017,4.809678,1.3,249.7,0
1565944380,16-Aug-2019 10:33:00,4,126,1,0.16008,-1.39064711272314,0.00463179411567391,0.0579676528135886,0.155448205884326,-1.44861476553673,-60.53,92.67,30.77,51.708017,4.809678,1.3,249.7,0
1565944380,16-Aug-2019 10:33:00,4,126.25,1,0.16136,-1.37648575306913,0.00611301180821741,0.0743999297287476,0.155246988191783,-1.45088568279788,-35.96,92.72,30.77,51.708017,4.809678,1.3,249.7,0
1565944380,16-Aug-2019 10:33:00,4,126.5,1,0.162641,-1.36231332985289,0.00759986275855637,0.0908780786349035,0.155041137241444,-1.4531914084878,38.8,92.72,30.77,51.708017,4.809678,1.3,249.7,0
1565944380,16-Aug-2019 10:33:00,4,126.75,1,0.16136,-1.37648575306913,0.00652838850273135,0.0790346456168551,0.154831611497269,-1.45552039868599,75.5,92.72,30.77,51.708017,4.809678,1.3,249.7,0
1565944380,16-Aug-2019 10:33:00,4,127,1,0.16136,-1.37648575306913,0.00674061303280762,0.0813751388901012,0.154619386967192,-1.45786089195923,37.4,92.72,30.77,51.708017,4.809678,1.3,249.7,0
1565944380,16-Aug-2019 10:33:00,4,127.25,1,0.162641,-1.36231332985289,0.00823554501269325,0.0978876063980327,0.154405454987307,-1.46020093625093,-14.96,92.8,30.77,51.708017,4.809678,1.3,249.7,0
1565944380,16-Aug-2019 10:33:00,4,127.5,1,0.162641,-1.36231332985289,0.00845017971415016,0.100215082593404,0.15419082028585,-1.4625284124463,-47.41,92.8,30.77,51.708017,4.809678,1.3,249.7,0
1565944380,16-Aug-2019 10:33:00,4,127.75,1,0.16008,-1.39064711272314,0.00610350070831153,0.0741839423013408,0.153976499291688,-1.46483105502449,-5.87,92.8,30.77,51.708017,4.809678,1.3,249.7,0
1565944380,16-Aug-2019 10:33:00,4,128,1,0.16008,-1.39064711272314,0.00631648134356549,0.0764493574343916,0.153763518656435,-1.46709647015754,110.95,92.8,30.75,51.708017,4.809678,1.3,249.7,0
1565944380,16-Aug-2019 10:33:00,4,128.25,1,0.16136,-1.37648575306913,0.00780708603678079,0.0928263985028386,0.153552913963219,-1.46931215157197,-54.04,92.85,30.75,51.708017,4.809678,1.3,249.7,0
1565944380,16-Aug-2019 10:33:00,4,128.5,1,0.16008,-1.39064711272314,0.00673427144479208,0.0808183819446182,0.153345728555208,-1.47146549466776,-157.66,92.85,30.75,51.708017,4.809678,1.3,249.7,0
1565944380,16-Aug-2019 10:33:00,4,128.75,1,0.16008,-1.39064711272314,0.00693698744104396,0.0828966959435131,0.153143012558956,-1.47354380866666,-117.34,92.85,30.75,51.708017,4.809678,1.3,249.7,0
1565944380,16-Aug-2019 10:33:00,4,129,1,0.162641,-1.36231332985289,0.00969517792729435,0.113220997191081,0.152945822072706,-1.47553432704397,90.9,92.85,30.75,51.708017,4.809678,1.3,249.7,0
1565944380,16-Aug-2019 10:33:00,4,129.25,1,0.163922,-1.34814090663665,0.0111667815878991,0.129283310255878,0.152755218412101,-1.47742421689253,67.83,92.95,30.75,51.708017,4.809678,1.3,249.7,0
1565944380,16-Aug-2019 10:33:00,4,129.5,1,0.16136,-1.37648575306913,0.0087877325488267,0.102714834059837,0.152572267451173,-1.47920058712897,14.15,92.95,30.75,51.708017,4.809678,1.3,249.7,0
1565944380,16-Aug-2019 10:33:00,4,129.75,1,0.162641,-1.36231332985289,0.0102429609534309,0.11853716583272,0.152398039046569,-1.48085049568561,65.26,92.95,30.75,51.708017,4.809678,1.3,249.7,0
1565944380,16-Aug-2019 10:33:00,4,130,1,0.165202,-1.33397954698264,0.0129683934654969,0.1483814088306,0.152233606534503,-1.48236095581324,114.18,92.95,30.77,51.708017,4.809678,1.3,249.7,0
1565944380,16-Aug-2019 10:33:00,4,130.25,1,0.165202,-1.33397954698264,0.0131219537087497,0.149739394622077,0.15208004629125,-1.48371894160472,77.63,92.73,30.77,51.708017,4.809678,1.3,249.7,0
1565944380,16-Aug-2019 10:33:00,4,130.5,1,0.163922,-1.34814090663665,0.0119841289222188,0.136780232911676,0.151937871077781,-1.48492113954833,26.78,92.73,30.77,51.708017,4.809678,1.3,249.7,0
1565944380,16-Aug-2019 10:33:00,4,130.75,1,0.162641,-1.36231332985289,0.0108342577702205,0.123663760402215,0.151806742229779,-1.48597709025511,-15.04,92.73,30.77,51.708017,4.809678,1.3,249.7,0
1565944380,16-Aug-2019 10:33:00,4,131,1,0.16136,-1.37648575306913,0.0096740788565281,0.110414072294621,0.151685921143472,-1.48689982536376,-52.29,92.73,30.73,51.708017,4.809678,1.3,249.7,0
1565944380,16-Aug-2019 10:33:00,4,131.25,1,0.163922,-1.34814090663665,0.0123474860362195,0.139561622624215,0.151574513963781,-1.48770252926087,-58.94,92.53,30.73,51.708017,4.809678,1.3,249.7,0
1565944380,16-Aug-2019 10:33:00,4,131.5,1,0.162641,-1.36231332985289,0.011169399186683,0.126084103526402,0.151471600813317,-1.4883974333793,-122.85,92.53,30.73,51.708017,4.809678,1.3,249.7,0
1565944380,16-Aug-2019 10:33:00,4,131.75,1,0.162641,-1.36231332985289,0.0112646990355098,0.126682197790128,0.15137630096449,-1.48899552764302,-95.14,92.53,30.73,51.708017,4.809678,1.3,249.7,0
1565944380,16-Aug-2019 10:33:00,4,132,1,0.162641,-1.36231332985289,0.0113531971683809,0.12719323215373,0.151287802831619,-1.48950656200662,0.6,92.53,30.75,51.708017,4.809678,1.3,249.7,0
1565944380,16-Aug-2019 10:33:00,4,132.25,1,0.162641,-1.36231332985289,0.0114356250387435,0.127625813080135,0.151205374961257,-1.48993914293303,135.07,92.28,30.75,51.708017,4.809678,1.3,249.7,0
1565944380,16-Aug-2019 10:33:00,4,132.5,1,0.162641,-1.36231332985289,0.0115126329544083,0.127987523660167,0.151128367045592,-1.49030085351306,40.52,92.28,30.75,51.708017,4.809678,1.3,249.7,0
1565944380,16-Aug-2019 10:33:00,4,132.75,1,0.162641,-1.36231332985289,0.0115847940409017,0.128285042181745,0.151056205959098,-1.49059837203464,63.83,92.28,30.75,51.708017,4.809678,1.3,249.7,0
1565944380,16-Aug-2019 10:33:00,4,133,1,0.162641,-1.36231332985289,0.0116526104415481,0.128524251013853,0.150988389558452,-1.49083758086675,184.88,92.28,30.75,51.708017,4.809678,1.3,249.7,0
1565944380,16-Aug-2019 10:33:00,4,133.25,1,0.16136,-1.37648575306913,0.0104355202797828,0.11453791067304,0.150924479720217,-1.49102366374217,-291.26,91.98,30.75,51.708017,4.809678,1.3,249.7,0
1565944380,16-Aug-2019 10:33:00,4,133.5,1,0.162641,-1.36231332985289,0.0117769046144784,0.128847861856236,0.150864095385522,-1.49116119170913,-211.76,91.98,30.75,51.708017,4.809678,1.3,249.7,0
1565944380,16-Aug-2019 10:33:00,4,133.75,1,0.162641,-1.36231332985289,0.0118340940092711,0.128940868864394,0.150806905990729,-1.49125419871729,-13.08,91.98,30.75,51.708017,4.809678,1.3,249.7,0
1565944380,16-Aug-2019 10:33:00,4,134,1,0.162641,-1.36231332985289,0.0118883745501635,0.128992918104013,0.150752625449836,-1.49130624795691,34.81,91.98,30.73,51.708017,4.809678,1.3,249.7,0
1565944380,16-Aug-2019 10:33:00,4,134.25,1,0.162641,-1.36231332985289,0.011939993260018,0.129007160180437,0.150701006739982,-1.49132049003333,-15.28,91.7,30.73,51.708017,4.809678,1.3,249.7,0
1565944380,16-Aug-2019 10:33:00,4,134.5,1,0.163922,-1.34814090663665,0.0132701629177591,0.143158807326766,0.150651837082241,-1.49129971396342,-1.26,91.7,30.73,51.708017,4.809678,1.3,249.7,0
1565944380,16-Aug-2019 10:33:00,4,134.75,1,0.16136,-1.37648575306913,0.0107550663188917,0.114760638803652,0.150604933681108,-1.49124639187279,18.08,91.7,30.73,51.708017,4.809678,1.3,249.7,0
1565944380,16-Aug-2019 10:33:00,4,135,1,0.158799,-1.40481953593938,0.00823886002611116,0.0863431822299894,0.150560139973889,-1.49116271816937,11.69,91.7,30.75,51.708017,4.809678,1.3,249.7,0
1565944380,16-Aug-2019 10:33:00,4,135.25,1,0.163922,-1.34814090663665,0.0134046776621201,0.142909737238387,0.15051732233788,-1.49105064387504,-45.25,91.38,30.75,51.708017,4.809678,1.3,249.7,0
1565944380,16-Aug-2019 10:33:00,4,135.5,1,0.165202,-1.33397954698264,0.0147256327955247,0.156932359730599,0.150476367204475,-1.49091190671324,-0.78,91.38,30.75,51.708017,4.809678,1.3,249.7,0
1565944380,16-Aug-2019 10:33:00,4,135.75,1,0.166483,-1.3198071237664,0.0160458214672974,0.170940933710947,0.150437178532703,-1.49074805747735,115.11,91.38,30.75,51.708017,4.809678,1.3,249.7,0
1565944380,16-Aug-2019 10:33:00,4,136,1,0.16008,-1.39064711272314,0.00968032440098454,0.0999133704161437,0.150399675599015,-1.49056048313929,-33.39,91.38,30.73,51.708017,4.809678,1.3,249.7,0
1565944380,16-Aug-2019 10:33:00,4,136.25,1,0.154957,-1.44732574202588,0.00459320893536488,0.0430246850755684,0.150363791064635,-1.49035042710144,-69.82,90.97,30.73,51.708017,4.809678,1.3,249.7,0
1565944380,16-Aug-2019 10:33:00,4,136.5,1,0.157518,-1.41899195915563,0.00718853071390413,0.0711270477893913,0.150329469286096,-1.49011900694502,-0.17,90.97,30.73,51.708017,4.809678,1.3,249.7,0
1565944380,16-Aug-2019 10:33:00,4,136.75,1,0.151115,-1.48983194811237,0.000818335161329953,3.52818719033809e-05,0.15029666483867,-1.48986722998427,-15.75,90.97,30.73,51.708017,4.809678,1.3,249.7,0
1565944380,16-Aug-2019 10:33:00,4,137,1,0.158799,-1.40481953593938,0.0085336587739917,0.0847764709585705,0.150265341226008,-1.48959600689796,-228.65,90.97,30.73,51.708017,4.809678,1.3,249.7,0
1565944380,16-Aug-2019 10:33:00,4,137.25,1,0.158799,-1.40481953593938,0.00856353024739762,0.0844866277361791,0.150235469752602,-1.48930616367556,242.19,90.58,30.73,51.708017,4.809678,1.3,249.7,0
1565944380,16-Aug-2019 10:33:00,4,137.5,1,0.158799,-1.40481953593938,0.00859197146142449,0.0841789161474134,0.150207028538576,-1.4889984520868,-1.04,90.58,30.73,51.708017,4.809678,1.3,249.7,0
1565944380,16-Aug-2019 10:33:00,4,137.75,1,0.156238,-1.43315331880964,0.00605799834113907,0.0555202400471122,0.150180001658861,-1.48867355885675,-57.92,90.58,30.73,51.708017,4.809678,1.3,249.7,0
1565944380,16-Aug-2019 10:33:00,4,138,1,0.156238,-1.43315331880964,0.00608362160891451,0.0551787948972087,0.150154378391085,-1.48833211370684,50.05,90.58,30.73,51.708017,4.809678,1.3,249.7,0
1565944380,16-Aug-2019 10:33:00,4,138.25,1,0.16008,-1.39064711272314,0.00994984744156671,0.0973275836786134,0.150130152558433,-1.48797469640176,35.14,90.13,30.73,51.708017,4.809678,1.3,249.7,0
1565944380,16-Aug-2019 10:33:00,4,138.5,1,0.157518,-1.41899195915563,0.00741067798955508,0.0686098827196557,0.150107322010445,-1.48760184187528,18.57,90.13,30.73,51.707999,4.809714,1.3,252.8,0.2
1565944380,16-Aug-2019 10:33:00,4,138.75,1,0.158799,-1.40481953593938,0.00871311189569302,0.0823945099368193,0.150085888104307,-1.4872140458762,-24.7,90.13,30.73,51.707999,4.809714,1.3,252.8,0.2
1565944380,16-Aug-2019 10:33:00,4,139,1,0.158799,-1.40481953593938,0.00873314479820977,0.0819922349748232,0.15006585520179,-1.48681177091421,-23.47,90.13,30.71,51.707999,4.809714,1.3,252.8,0.2
1565944380,16-Aug-2019 10:33:00,4,139.25,1,0.156238,-1.43315331880964,0.0061907697102595,0.0532421315593039,0.15004723028974,-1.48639545036894,10.69,89.75,30.71,51.707999,4.809714,1.3,252.8,0.2
1565944380,16-Aug-2019 10:33:00,4,139.5,1,0.154957,-1.44732574202588,0.00492697735149633,0.0386397500652502,0.150030022648504,-1.48596549209113,26.33,89.75,30.71,51.707999,4.809714,1.3,252.8,0
1565944380,16-Aug-2019 10:33:00,4,139.75,1,0.157518,-1.41899195915563,0.00750375643776627,0.066530322402893,0.150014243562234,-1.48552228155852,2.28,89.75,30.71,51.707999,4.809714,1.3,252.8,0
1565944380,16-Aug-2019 10:33:00,4,140,1,0.158799,-1.40481953593938,0.00879909393420991,0.0802466487022782,0.14999990606579,-1.48506618464166,91.25,89.75,30.71,51.707999,4.809714,1.3,252.8,0
1565944380,16-Aug-2019 10:33:00,4,140.25,1,0.16136,-1.37648575306913,0.011372975276396,0.108111796958671,0.149987024723604,-1.4845975500278,95.4,89.35,30.71,51.707999,4.809714,1.3,252.8,0
1565944380,16-Aug-2019 10:33:00,4,140.5,1,0.162641,-1.36231332985289,0.0126646516436456,0.121795802404662,0.149976348356354,-1.48410913225756,0.07,89.35,30.71,51.707971,4.809752,1.3,257,0.2
1565944380,16-Aug-2019 10:33:00,4,140.75,1,0.162641,-1.36231332985289,0.0126713558624318,0.121271194886953,0.149969644137568,-1.48358452473985,-8.97,89.35,30.71,51.707971,4.809752,1.3,257,0.2
1565944380,16-Aug-2019 10:33:00,4,141,1,0.163922,-1.34814090663665,0.0139529696740107,0.134865191821363,0.149969030325989,-1.48300609845802,-132.82,89.35,30.71,51.707971,4.809752,1.3,257,0.2
1565944380,16-Aug-2019 10:33:00,4,141.25,1,0.163922,-1.34814090663665,0.0139453721675435,0.13421679128355,0.149976627832456,-1.4823576979202,-881.85,88.98,30.71,51.707971,4.809752,1.3,257,0.2
1565944380,16-Aug-2019 10:33:00,4,141.5,1,0.16008,-1.39064711272314,0.0100856117868746,0.0909782977879048,0.149994388213125,-1.48162541051105,477.91,88.98,30.71,51.707948,4.809781,1.3,260.2,0.3
1565944380,16-Aug-2019 10:33:00,4,141.75,1,0.16008,-1.39064711272314,0.0100559818561353,0.0901505322697,0.150024018143865,-1.48079764499284,199.03,88.98,30.71,51.707948,4.809781,1.3,260.2,0.3
1565944380,16-Aug-2019 10:33:00,4,142,1,0.162641,-1.36231332985289,0.0125740443629542,0.117551647701658,0.150066955637046,-1.47986497755455,211.07,88.98,30.73,51.707948,4.809781,1.3,260.2,0.3
1565944380,16-Aug-2019 10:33:00,4,142.25,1,0.162641,-1.36231332985289,0.0125166269121551,0.116506603754386,0.150124373087845,-1.47881993360728,11.52,88.62,30.73,51.707948,4.809781,1.3,260.2,0.3
1565944380,16-Aug-2019 10:33:00,4,142.5,1,0.16008,-1.39064711272314,0.00988280661363847,0.0870096526911361,0.150197193386362,-1.47765676541428,4.28,88.62,30.73,51.707922,4.809807,1.3,263.6,0.4
1565944380,16-Aug-2019 10:33:00,4,142.75,1,0.16136,-1.37648575306913,0.0110738884118937,0.0998854924982888,0.150286111588106,-1.47637124556742,-22.41,88.62,30.73,51.707922,4.809807,1.3,263.6,0.4
1565944380,16-Aug-2019 10:33:00,4,143,1,0.165202,-1.33397954698264,0.0148103818658304,0.140980934658381,0.15039161813417,-1.47496048164102,13.04,88.62,30.73,51.707922,4.809807,1.3,263.6,0.4
1565944380,16-Aug-2019 10:33:00,4,143.25,1,0.167763,-1.30564576411239,0.0172489784414114,0.167776988018419,0.150514021558589,-1.47342275213081,-0.35,88.28,30.73,51.707922,4.809807,1.3,263.6,0.4
1565944380,16-Aug-2019 10:33:00,4,143.5,1,0.166483,-1.3198071237664,0.0158295303061756,0.151950238299393,0.150653469693824,-1.47175736206579,-25.75,88.28,30.73,51.707891,4.809831,1.3,267.4,0.4
1565944380,16-Aug-2019 10:33:00,4,143.75,1,0.165202,-1.33397954698264,0.0143920310309049,0.135984969259487,0.150809968969095,-1.46996451624213,34.04,88.28,30.73,51.707891,4.809831,1.3,267.4,0.4
1565944380,16-Aug-2019 10:33:00,4,144,1,0.166483,-1.3198071237664,0.0154995982934202,0.148238084276556,0.15098340170658,-1.46804520804296,-11.43,88.28,30.73,51.707891,4.809831,1.3,267.4,0.4
1565944380,16-Aug-2019 10:33:00,4,144.25,1,0.167763,-1.30564576411239,0.0165894585212386,0.160355357858368,0.151173541478761,-1.46600112197076,7.77,87.93,30.73,51.707891,4.809831,1.3,267.4,0.4
1565944380,16-Aug-2019 10:33:00,4,144.5,1,0.165202,-1.33397954698264,0.0138219333352429,0.129855001234289,0.151380066664757,-1.46383454821693,33.96,87.93,30.73,51.707857,4.809865,1.3,271.9,3.2
1565944380,16-Aug-2019 10:33:00,4,144.75,1,0.167763,-1.30564576411239,0.0161604276273109,0.155902543675621,0.151602572372689,-1.46154830778801,21.91,87.93,30.73,51.707857,4.809865,1.3,271.9,3.2
1565944380,16-Aug-2019 10:33:00,4,145,1,0.167763,-1.30564576411239,0.0159224190996348,0.153499922773878,0.151840580900365,-1.45914568688627,3.4,87.93,30.75,51.707857,4.809865,1.3,271.9,3.2
1565944380,16-Aug-2019 10:33:00,4,145.25,1,0.166483,-1.3198071237664,0.0143894491003662,0.136823255635267,0.152093550899634,-1.45663037940167,1.15,87.58,30.75,51.707857,4.809865,1.3,271.9,3.2
1565944380,16-Aug-2019 10:33:00,4,145.5,1,0.167763,-1.30564576411239,0.0154021146027214,0.148360672400486,0.152360885397279,-1.45400643651288,-1.74,87.58,30.75,51.707829,4.80989,1.3,275.5,3.7
1565944380,16-Aug-2019 10:33:00,4,145.75,1,0.169044,-1.29147334089615,0.0164020611892515,0.159804881622429,0.152641938810748,-1.45127822251858,1.4,87.58,30.75,51.707829,4.80989,1.3,275.5,3.7
1565944380,16-Aug-2019 10:33:00,4,146,1,0.169044,-1.29147334089615,0.0161079769177848,0.15697703523285,0.152936023082215,-1.448450376129,-11.75,87.58,30.75,51.707829,4.80989,1.3,275.5,3.7
1565944380,16-Aug-2019 10:33:00,4,146.25,1,0.167763,-1.30564576411239,0.0145205869596271,0.139882012430232,0.153242413040373,-1.44552777654262,-6.37,87.18,30.75,51.707829,4.80989,1.3,275.5,3.7
1565944380,16-Aug-2019 10:33:00,4,146.5,1,0.169044,-1.29147334089615,0.0154836489135859,0.151042172820414,0.153560351086414,-1.44251551371657,-0.24,87.18,30.75,51.707803,4.809916,1.3,278.9,3.7
1565944380,16-Aug-2019 10:33:00,4,146.75,1,0.170325,-1.27730091767991,0.0164359487110741,0.162117944632271,0.153889051288926,-1.43941886231218,-10.56,87.18,30.75,51.707803,4.809916,1.3,278.9,3.7
1565944380,16-Aug-2019 10:33:00,4,147,1,0.172886,-1.24896713480966,0.0186582970379877,0.187276124051922,0.154227702962012,-1.43624325886158,2.36,87.18,30.75,51.707803,4.809916,1.3,278.9,3.7
1565944380,16-Aug-2019 10:33:00,4,147.25,1,0.170325,-1.27730091767991,0.0157495262082804,0.155693364076928,0.15457547379172,-1.43299428175684,7.34,86.93,30.75,51.707803,4.809916,1.3,278.9,3.7
1565944380,16-Aug-2019 10:33:00,4,147.5,1,0.171605,-1.2631395580259,0.0166734874322954,0.166538075687095,0.154931512567705,-1.429677633713,-5.1,86.93,30.75,51.707776,4.809938,1.3,282.2,3.7
1565944380,16-Aug-2019 10:33:00,4,147.75,1,0.171605,-1.2631395580259,0.0163100484300528,0.163159568373108,0.155294951569947,-1.42629912639901,13.09,86.93,30.75,51.707776,4.809938,1.3,282.2,3.7
1565944380,16-Aug-2019 10:33:00,4,148,1,0.172886,-1.24896713480966,0.0172210913459601,0.173897532159002,0.15566490865404,-1.42286466696866,-6.57,86.93,30.77,51.707776,4.809938,1.3,282.2,3.7
1565944380,16-Aug-2019 10:33:00,4,148.25,1,0.174167,-1.23479471159342,0.0181265109268892,0.184585534663122,0.156040489073111,-1.41938024625654,-2.54,86.78,30.77,51.707776,4.809938,1.3,282.2,3.7
1565944380,16-Aug-2019 10:33:00,4,148.5,1,0.174167,-1.23479471159342,0.0177462128344449,0.181057215568615,0.156420787165555,-1.41585192716203,-0.63,86.78,30.77,51.707738,4.809992,1.3,287.8,4.1
1565944380,16-Aug-2019 10:33:00,4,148.75,1,0.175447,-1.22063335193941,0.0186421122596667,0.191652483710086,0.156804887740333,-1.41228583564949,-0.35,86.78,30.77,51.707738,4.809992,1.3,287.8,4.1
1565944380,16-Aug-2019 10:33:00,4,149,1,0.174167,-1.23479471159342,0.0169751328119594,0.173893442584294,0.157191867188041,-1.40868815417771,-1.89,86.78,30.75,51.707738,4.809992,1.3,287.8,4.1
1565944380,16-Aug-2019 10:33:00,4,149.25,1,0.176728,-1.20646092872317,0.0191472054557648,0.198604185992804,0.157580794544235,-1.40506511471597,-7.42,86.63,30.75,51.707738,4.809992,1.3,287.8,4.1
1565944380,16-Aug-2019 10:33:00,4,149.5,1,0.176728,-1.20646092872317,0.0187572675815441,0.194962063900288,0.157970732418456,-1.40142299262346,-4.95,86.63,30.75,51.707707,4.810017,1.3,291.7,4
1565944380,16-Aug-2019 10:33:00,4,149.75,1,0.174167,-1.23479471159342,0.0158062621941021,0.162973389691897,0.158360737805898,-1.39776810128532,14.44,86.63,30.75,51.707707,4.810017,1.3,291.7,4
1565944380,16-Aug-2019 10:33:00,4,150,1,0.162641,-1.36231332985289,0.00389113720343642,0.0317934575589243,0.158749862796564,-1.39410678741182,-12.65,86.63,30.77,51.707707,4.810017,1.3,291.7,4
1565944380,16-Aug-2019 10:33:00,4,150.25,1,0.174167,-1.23479471159342,0.0150298448051583,0.15565071532521,0.159137155194842,-1.39044542691863,3.06,86.57,30.77,51.707707,4.810017,1.3,291.7,4
1565944380,16-Aug-2019 10:33:00,4,150.5,1,0.178009,-1.19228850550693,0.0184865202658723,0.194490701542897,0.159522479734128,-1.38677920704982,8.39,86.57,30.77,51.707676,4.810034,1.3,295.3,4
1565944380,16-Aug-2019 10:33:00,4,150.75,1,0.175447,-1.22063335193941,0.0155401296031983,0.162456347561792,0.159906870396802,-1.3830896995012,-29.36,86.57,30.77,51.707676,4.810034,1.3,295.3,4
1565944380,16-Aug-2019 10:33:00,4,151,1,0.175447,-1.22063335193941,0.0151551846936041,0.158723172838762,0.160291815306396,-1.37935652477817,-28.6,86.57,30.77,51.707676,4.810034,1.3,295.3,4
1565944380,16-Aug-2019 10:33:00,4,151.25,1,0.174167,-1.23479471159342,0.0134881209705071,0.140766613771038,0.160678879029493,-1.37556132536446,112.2,86.47,30.77,51.707676,4.810034,1.3,295.3,4
1565944380,16-Aug-2019 10:33:00,4,151.5,1,0.172886,-1.24896713480966,0.0118164879243676,0.122721776329604,0.161069512075632,-1.37168891113926,100.31,86.47,30.77,51.707648,4.810051,1.3,298.7,4
1565944380,16-Aug-2019 10:33:00,4,151.75,1,0.171605,-1.2631395580259,0.0101400367914178,0.104587831523159,0.161464963208582,-1.36772738954906,5.2,86.47,30.77,51.707648,4.810051,1.3,298.7,4
1565944380,16-Aug-2019 10:33:00,4,152,1,0.165202,-1.33397954698264,0.00333575270870359,0.029688406048443,0.161866247291296,-1.36366795303109,-10.55,86.47,30.77,51.707648,4.810051,1.3,298.7,4
1565944380,16-Aug-2019 10:33:00,4,152.25,1,0.165202,-1.33397954698264,0.00292785770912768,0.0255250235967057,0.162274142290872,-1.35950457057935,-61.64,86.37,30.77,51.707648,4.810051,1.3,298.7,4
1565944380,16-Aug-2019 10:33:00,4,152.5,1,0.167763,-1.30564576411239,0.00507379916889839,0.0495879076605714,0.162689200831102,-1.35523367177296,-89.95,86.37,30.77,51.70762,4.810069,1.3,302.1,4
1565944380,16-Aug-2019 10:33:00,4,152.75,1,0.165202,-1.33397954698264,0.00209023171495526,0.0168743058080743,0.163111768285045,-1.35085385279072,121.36,86.37,30.77,51.70762,4.810069,1.3,302.1,4
1565944380,16-Aug-2019 10:33:00,4,153,1,0.165202,-1.33397954698264,0.00165999690172544,0.0123860654017844,0.163542003098275,-1.34636561238443,-129.75,86.37,30.77,51.70762,4.810069,1.3,302.1,4
1565944380,16-Aug-2019 10:33:00,4,153.25,1,0.167763,-1.30564576411239,0.00378310290545883,0.0361253539922963,0.163979897094541,-1.34177111810469,-26.88,86.13,30.77,51.70762,4.810069,1.3,302.1,4
1565944380,16-Aug-2019 10:33:00,4,153.5,1,0.172886,-1.24896713480966,0.00846070534408702,0.0881068657240733,0.164425294655913,-1.33707400053373,49.98,86.13,30.77,51.707592,4.810112,1.3,306.3,3.7
1565944380,16-Aug-2019 10:33:00,4,153.75,1,0.171605,-1.2631395580259,0.00672708970718852,0.0691396145960121,0.164877910292811,-1.33227917262191,43.14,86.13,30.77,51.707592,4.810112,1.3,306.3,3.7
1565944380,16-Aug-2019 10:33:00,4,154,1,0.172886,-1.24896713480966,0.00754865554651807,0.0784255364237094,0.165337344453482,-1.32739267123337,-4.52,86.13,30.79,51.707592,4.810112,1.3,306.3,3.7
1565944380,16-Aug-2019 10:33:00,4,154.25,1,0.172886,-1.24896713480966,0.00708290240446616,0.0734543834238313,0.165803097595534,-1.32242151823349,-54.04,85.85,30.79,51.707592,4.810112,1.3,306.3,3.7
1565944380,16-Aug-2019 10:33:00,4,154.5,1,0.172886,-1.24896713480966,0.00661141737370755,0.068406463921902,0.166274582626292,-1.31737359873156,-64.41,85.85,30.79,51.707564,4.810132,1.4,309.7,3.6
1565944380,16-Aug-2019 10:33:00,4,154.75,1,0.172886,-1.24896713480966,0.00613486414566142,0.0632904195591071,0.166751135854339,-1.31225755436877,-75.45,85.85,30.79,51.707564,4.810132,1.4,309.7,3.6
1565944380,16-Aug-2019 10:33:00,4,155,1,0.174167,-1.23479471159342,0.00693497339565274,0.0722879782022872,0.167232026604347,-1.30708268979571,51.41,85.85,30.81,51.707564,4.810132,1.4,309.7,3.6
1565944380,16-Aug-2019 10:33:00,4,155.25,1,0.174167,-1.23479471159342,0.00645053435622547,0.0670641791170108,0.167716465643775,-1.30185889071043,51.19,85.55,30.81,51.707564,4.810132,1.4,309.7,3.6
1565944380,16-Aug-2019 10:33:00,4,155.5,1,0.174167,-1.23479471159342,0.00596338743998689,0.0618018404349994,0.168203612560013,-1.29659655202842,40.6,85.55,30.81,51.70753,4.810174,1.4,314.6,3.9
1565944380,16-Aug-2019 10:33:00,4,155.75,1,0.171605,-1.2631395580259,0.00291241778588155,0.0281669569063201,0.168692582214118,-1.29130651493222,54.36,85.55,30.81,51.70753,4.810174,1.4,314.6,3.9
1565944380,16-Aug-2019 10:33:00,4,156,1,0.174167,-1.23479471159342,0.00498454961590844,0.0512053001096495,0.169182450384092,-1.28600001170307,3.05,85.55,30.79,51.70753,4.810174,1.4,314.6,3.9
1565944380,16-Aug-2019 10:33:00,4,156.25,1,0.174167,-1.23479471159342,0.0044947413019728,0.0458939057791066,0.169672258698027,-1.28068861737253,-54.72,85.35,30.79,51.70753,4.810174,1.4,314.6,3.9
1565944380,16-Aug-2019 10:33:00,4,156.5,1,0.172886,-1.24896713480966,0.00272498105433908,0.026417072541348,0.170161018945661,-1.27538420735101,-24.28,85.35,30.79,51.707505,4.810203,1.4,318,3.9
1565944380,16-Aug-2019 10:33:00,4,156.75,1,0.171605,-1.2631395580259,0.000957283153828759,0.00695936226848515,0.170647716846171,-1.27009892029439,32.73,85.35,30.79,51.707505,4.810203,1.4,318,3.9
1565944380,16-Aug-2019 10:33:00,4,157,1,0.174167,-1.23479471159342,0.00303568465944906,0.0300504139676356,0.171131315340551,-1.26484512556106,24.02,85.35,30.77,51.707505,4.810203,1.4,318,3.9
1565944380,16-Aug-2019 10:33:00,4,157.25,1,0.172886,-1.24896713480966,0.00127524253161559,0.0106682598824008,0.171610757468384,-1.25963539469206,-39.62,85.13,30.77,51.707505,4.810203,1.4,318,3.9
1565944380,16-Aug-2019 10:33:00,4,157.5,1,0.172886,-1.24896713480966,0.000801031118585954,0.00551534160720557,0.172084968881414,-1.25448247641686,-8.74,85.13,30.77,51.707483,4.810232,1.4,321.1,3.8
