1624789834.00
64.000000
-0.00
-0.00
-0.00
-0.00
-0.00
-0.00
-0.00
-0.00
-0.00
-0.00
0.00
0.01
0.01
-0.00
-0.03
-0.05
-0.05
0.00
0.13
0.36
0.66
1.01
1.37
1.72
2.06
2.40
2.80
3.26
3.83
4.48
5.17
5.85
6.49
7.11
7.77
8.54
9.49
10.72
12.16
13.68
15.14
16.47
17.68
18.94
20.48
22.50
25.25
28.55
32.11
35.59
38.80
41.79
44.94
48.74
53.58
59.89
67.30
75.25
83.10
90.43
97.32
104.35
112.35
122.00
133.95
147.69
162.32
176.75
190.26
202.83
215.23
229.09
243.46
260.84
281.81
306.17
332.27
356.81
375.33
383.50
378.51
360.13
331.06
295.01
255.61
215.23
174.73
134.19
93.89
54.70
17.86
-15.81
-46.82
-76.89
-107.81
-140.50
-174.84
-209.70
-244.24
-278.00
-310.79
-341.77
-368.74
-388.77
-399.30
-400.24
-393.79
-383.86
-373.29
-362.62
-350.01
-333.25
-312.32
-289.81
-270.40
-257.39
-251.02
-247.46
-241.18
-228.24
-208.26
-185.07
-163.81
-148.84
-140.48
-136.16
-131.49
-123.19
-111.01
-96.74
-83.70
-73.53
-66.32
-59.67
-51.00
-39.10
-24.84
-11.58
-2.46
0.19
-2.81
-8.96
-14.26
-15.59
-12.18
-4.99
3.07
9.89
14.07
16.69
19.43
23.79
29.92
35.78
39.06
37.46
31.21
22.02
13.46
8.80
9.39
14.72
21.85
28.02
30.94
30.99
29.69
29.19
30.61
32.76
33.64
30.69
23.51
13.26
3.32
-2.85
-3.60
0.81
7.47
13.46
16.28
16.12
14.37
13.22
13.87
15.28
15.60
12.30
4.93
-5.49
-15.65
-22.13
-23.10
-18.58
-11.27
-3.95
0.78
2.89
3.42
4.24
6.36
8.69
9.51
6.47
-0.68
-10.82
-20.70
-26.99
-27.96
-23.65
-16.57
-9.28
-4.10
-0.92
1.23
3.94
7.83
11.39
12.65
9.21
1.03
-10.48
-21.74
-29.27
-31.30
-27.84
-21.43
-14.56
-9.58
-6.56
-4.91
-3.39
-1.35
0.43
1.19
-0.28
-3.55
-7.81
-11.02
-11.62
-9.24
-4.51
0.33
3.51
3.41
0.35
-4.89
-10.67
-15.53
-18.84
-19.88
-18.92
-15.69
-10.75
-4.11
3.59
11.33
18.13
22.27
22.94
19.35
12.25
2.51
-8.03
-17.33
-23.71
-25.29
-21.61
-12.43
0.73
16.32
31.97
45.42
55.01
59.12
57.53
50.28
39.02
25.43
12.08
1.51
-4.53
-4.56
1.17
12.01
25.92
41.21
55.72
67.60
75.52
78.02
74.83
65.90
52.78
37.08
21.43
8.30
-0.52
-3.58
-1.04
6.62
17.60
30.46
43.18
53.94
61.32
63.69
60.64
51.99
39.18
23.75
8.24
-4.89
-13.96
-17.56
-15.96
-9.64
-0.35
10.64
21.60
31.01
37.75
40.34
38.39
31.54
21.02
8.11
-4.87
-15.68
-22.73
-24.75
-21.99
-14.94
-5.28
5.79
16.62
25.79
32.21
34.50
32.30
25.31
14.79
2.03
-10.65
-21.02
-27.59
-29.15
-26.06
-18.85
-9.24
1.65
12.27
21.28
27.66
30.00
27.91
21.04
10.59
-2.13
-14.80
-25.21
-31.85
-33.51
-30.51
-23.30
-13.52
-2.27
8.85
18.38
25.18
27.70
25.52
18.28
7.29
-6.01
-19.16
-29.84
-36.52
-38.09
-35.04
-28.03
-18.84
-8.62
1.00
8.74
13.74
15.00
12.70
6.99
-0.72
-9.37
-17.25
-23.02
-25.96
-25.45
-22.15
-16.58
-10.20
-3.74
1.65
5.31
7.02
6.46
4.27
0.79
-2.82
-6.12
-8.19
-8.64
-7.51
-4.86
-1.70
1.41
3.33
3.96
2.96
0.67
-2.23
-5.31
-7.44
-8.27
-7.02
-4.02
0.68
6.33
11.95
16.77
19.42
19.43
16.14
10.15
1.99
-7.00
-15.27
-21.52
-24.06
-22.34
-15.88
-5.78
6.86
20.06
31.69
40.02
43.09
40.33
31.53
18.29
2.40
-13.40
-26.42
-34.70
-36.46
-31.57
-20.35
-4.80
13.11
30.60
45.07
54.64
57.57
53.75
43.46
28.64
11.21
-6.01
-20.40
-30.06
-33.37
-30.44
-21.73
-9.23
5.38
19.82
32.02
40.46
43.49
40.81
32.32
19.58
4.20
-11.20
-24.11
-32.72
-35.49
-32.53
-24.29
-12.59
1.09
14.72
26.47
34.95
38.62
37.09
30.14
19.16
5.57
-8.19
-19.79
-27.59
-30.24
-28.00
-21.32
-11.92
-0.96
9.92
19.32
26.17
29.03
27.48
21.15
11.22
-1.02
-13.28
-23.32
-29.63
-31.00
-27.81
-20.57
-10.96
-0.07
10.57
19.67
26.21
28.76
26.90
20.24
9.98
-2.61
-15.19
-25.53
-32.11
-33.67
-30.54
-23.19
-13.26
-1.90
9.28
18.83
25.63
28.20
26.14
19.13
8.45
-4.53
-17.44
-28.04
-34.83
-36.62
-33.77
-26.81
-17.41
-6.69
3.73
12.47
18.49
20.45
18.12
11.33
1.40
-10.37
-21.76
-30.79
-36.18
-36.94
-33.64
-26.88
-18.38
-9.23
-0.99
5.23
8.82
9.23
7.09
2.86
-2.00
-6.77
-10.27
-11.88
-11.51
-9.14
-5.83
-2.20
0.45
1.91
1.79
0.33
-1.88
-4.53
-6.64
-7.92
-7.57
-5.79
-2.44
2.01
6.73
11.09
13.78
14.30
11.93
7.20
0.50
-7.00
-13.99
-19.44
-21.87
-20.86
-15.90
-7.85
2.51
13.59
23.59
31.05
34.13
32.25
25.05
13.79
-0.13
-14.36
-26.48
-34.53
-36.53
-32.05
-21.10
-5.57
12.50
30.21
44.84
54.45
57.39
53.63
43.49
28.92
11.82
-5.03
-19.00
-28.15
-30.86
-27.23
-17.83
-4.73
10.29
24.87
36.94
45.03
47.53
44.19
35.00
21.55
5.57
-10.28
-23.40
-31.98
-34.55
-31.30
-22.77
-10.86
2.93
16.57
28.24
36.51
39.75
37.54
29.63
17.46
2.61
-12.33
-24.84
-33.15
-35.80
-32.98
-25.15
-14.10
-1.17
11.71
22.87
31.01
34.58
33.19
26.55
15.96
2.82
-10.48
-21.62
-28.98
-31.22
-28.61
-21.62
-11.96
-0.82
10.17
19.60
26.41
29.19
27.55
21.15
11.16
-1.13
-13.45
-23.56
-29.95
-31.37
-28.17
-20.83
-11.05
0.06
10.91
20.16
26.77
29.33
27.46
20.79
10.54
-2.01
-14.55
-24.86
-31.42
-32.98
-29.87
-22.57
-12.77
-1.60
9.33
18.64
25.23
27.67
25.60
18.67
8.13
-4.72
-17.54
-28.12
-34.96
-36.83
-34.07
-27.15
-17.74
-6.95
3.59
12.47
18.58
20.55
18.09
11.02
0.69
-11.53
-23.31
-32.56
-37.96
-38.55
-34.95
-27.80
-18.85
-9.10
-0.01
7.36
12.29
13.88
12.27
7.54
0.96
-6.53
-13.34
-18.24
-20.59
-19.82
-16.62
-11.46
-5.74
-0.13
4.30
6.98
7.82
6.70
4.50
1.69
-0.57
-2.01
-2.03
-0.61
1.87
5.11
7.97
9.88
9.82
7.91
4.16
-0.72
-5.68
-10.00
-12.40
-12.56
-9.86
-4.92
1.86
9.39
16.38
21.87
24.40
23.56
18.85
11.17
1.32
-9.06
-18.26
-24.93
-27.46
-25.48
-18.69
-8.27
4.64
18.08
29.90
38.32
41.35
38.37
29.19
15.46
-0.96
-17.25
-30.70
-39.30
-41.25
-36.38
-24.95
-8.96
9.60
27.83
43.02
53.18
56.53
52.99
42.89
28.23
10.95
-6.17
-20.51
-30.18
-33.56
-30.69
-22.03
-9.54
5.07
19.49
31.66
40.04
43.02
40.32
31.88
19.27
4.12
-10.97
-23.52
-31.77
-34.28
-31.21
-23.06
-11.67
1.56
14.68
25.94
34.02
37.32
35.43
28.08
16.63
2.56
-11.66
-23.62
-31.66
-34.39
-32.01
-24.96
-14.95
-3.16
8.64
18.94
26.56
30.00
28.83
22.72
12.89
0.64
-11.72
-21.95
-28.49
-30.05
-26.88
-19.43
-9.42
2.01
13.16
22.63
29.32
31.87
29.93
23.23
12.98
0.47
-12.03
-22.32
-28.89
-30.47
-27.35
-19.99
-10.08
1.22
12.27
21.64
28.27
30.76
28.76
21.97
11.65
-0.90
-13.38
-23.56
-29.96
-31.41
-28.30
-21.17
-11.73
-1.04
9.39
18.28
24.64
27.05
25.09
18.35
7.99
-4.72
-17.50
-28.12
-35.02
-36.88
-33.89
-26.41
-16.09
-4.10
7.73
17.81
24.87
27.44
25.21
17.98
7.15
-5.87
-18.72
-29.16
-35.69
-37.11
-33.81
-26.32
-16.39
-5.17
5.71
14.89
21.34
23.76
21.87
15.46
5.80
-5.89
-17.47
-26.94
-32.91
-34.19
-31.03
-23.75
-13.94
-2.74
8.07
16.99
22.97
24.87
22.79
16.85
8.48
-1.18
-10.27
-17.25
-21.18
-21.33
-18.34
-12.77
-6.19
0.59
6.41
10.56
12.74
12.48
10.25
6.20
1.47
-3.44
-7.46
-9.92
-10.60
-9.22
-6.49
-2.76
0.83
3.98
5.98
6.62
6.03
4.14
1.69
-1.07
-3.20
-4.55
-4.55
-3.16
-0.73
2.46
5.27
7.21
7.33
5.88
2.92
-0.88
-4.68
-8.11
-10.31
-11.28
-10.48
-8.31
-4.74
-0.29
4.31
8.55
11.32
12.34
10.96
7.67
2.68
-3.15
-8.75
-13.38
-15.77
-15.62
-12.36
-6.69
0.93
9.31
17.08
23.13
25.90
24.91
19.70
11.30
0.77
-10.06
-19.32
-25.79
-28.11
-26.23
-20.05
-10.78
0.63
12.45
22.86
30.38
33.25
31.02
23.46
12.01
-1.88
-15.88
-27.69
-35.57
-37.74
-33.91
-24.11
-10.03
6.58
23.12
37.03
46.37
49.32
45.63
35.51
20.86
3.69
-13.13
-26.88
-35.60
-37.60
-32.95
-22.18
-7.38
9.50
25.85
39.31
48.17
50.76
46.90
36.77
22.20
5.05
-11.88
-25.92
-35.17
-38.05
-34.68
-25.59
-12.75
2.15
16.82
29.22
37.79
40.85
38.08
29.39
16.41
0.87
-14.53
-27.19
-35.31
-37.44
-33.81
-24.99
-12.89
0.99
14.60
26.14
34.18
37.13
34.57
26.33
13.88
-1.14
-16.11
-28.50
-36.51
-38.70
-35.27
-26.74
-14.93
-1.30
12.17
23.70
31.93
35.29
33.41
26.07
14.68
0.74
-13.27
-24.94
-32.54
-34.60
-31.25
-22.93
-11.40
1.92
15.05
26.24
34.18
37.37
35.50
28.38
17.40
3.95
-9.58
-20.91
-28.45
-30.82
-28.27
-21.23
-11.40
0.00
11.29
20.98
27.96
30.81
29.15
22.67
12.60
0.21
-12.21
-22.46
-29.02
-30.63
-27.56
-20.25
-10.37
0.96
12.07
21.55
28.29
30.86
28.90
22.12
11.76
-0.86
-13.47
-23.84
-30.46
-32.06
-28.91
-21.46
-11.37
0.18
11.51
21.16
28.00
30.61
28.66
21.86
11.47
-1.21
-13.88
-24.33
-31.03
-32.69
-29.59
-22.16
-12.11
-0.62
10.62
20.14
26.86
29.38
27.36
20.53
10.11
-2.62
-15.44
-26.14
-33.17
-35.16
-32.27
-24.85
-14.57
-2.67
8.99
18.81
25.58
27.89
25.50
18.26
7.56
-5.23
-17.81
-28.02
-34.42
-35.81
-32.57
-25.20
-15.38
-4.20
6.78
16.24
23.08
25.82
23.98
17.17
6.59
-6.37
-19.27
-29.83
-36.45
-37.95
-34.70
-27.26
-17.34
-6.16
4.54
13.32
19.18
21.06
19.11
13.51
5.75
-3.09
-11.26
-17.35
-20.57
-20.23
-16.95
-11.21
-4.48
2.48
8.54
12.98
15.50
15.56
13.55
9.52
4.53
-0.90
-5.61
-8.81
-10.13
-9.19
-6.68
-2.98
0.73
4.08
6.34
7.23
6.84
5.00
2.40
-0.78
-3.59
-5.83
-6.85
-6.45
-4.85
-2.11
0.80
3.52
5.08
5.56
4.73
2.92
0.63
-1.96
-4.11
-5.76
-6.21
-5.64
-3.74
-0.74
2.80
6.43
8.98
9.99
8.67
5.43
0.46
-5.37
-11.01
-15.72
-18.31
-18.45
-15.57
-10.27
-2.95
5.29
13.08
19.35
22.51
22.09
17.57
9.93
0.14
-10.06
-18.85
-24.95
-26.90
-24.52
-17.65
-7.54
4.69
17.19
27.98
35.53
38.07
35.20
26.76
14.22
-0.86
-16.07
-28.96
-37.64
-40.23
-36.38
-26.14
-11.35
6.08
23.34
37.74
47.33
50.34
46.65
36.57
22.09
5.21
-11.24
-24.56
-32.87
-34.61
-29.97
-19.60
-5.63
10.12
25.28
37.74
45.96
48.33
44.55
34.64
20.28
3.26
-13.63
-27.69
-36.99
-39.87
-36.36
-26.92
-13.48
2.23
17.79
30.99
40.14
43.52
40.85
32.13
19.07
3.44
-12.03
-24.74
-32.91
-35.11
-31.61
-23.04
-11.34
1.99
15.00
25.96
33.59
36.34
33.81
25.75
13.54
-1.28
-16.15
-28.57
-36.76
-39.22
-36.08
-27.74
-16.01
-2.31
11.31
23.03
31.44
34.96
33.24
26.12
15.05
1.54
-11.93
-22.98
-30.01
-31.69
-28.33
-20.48
-9.92
2.10
13.86
23.89
31.07
33.92
32.04
25.06
14.24
0.89
-12.60
-23.95
-31.52
-33.92
-31.32
-24.10
-13.90
-1.95
9.95
20.20
27.56
30.56
28.86
22.22
11.96
-0.59
-13.15
-23.49
-30.09
-31.67
-28.46
-20.91
-10.70
0.96
12.38
22.07
28.91
31.52
29.57
22.80
12.46
-0.14
-12.75
-23.19
-29.94
-31.69
-28.66
-21.24
-11.09
0.61
12.12
21.91
28.81
31.39
29.35
22.43
11.95
-0.79
-13.49
-23.97
-30.72
-32.44
-29.38
-21.95
-11.83
-0.19
11.23
20.92
27.75
30.30
28.26
21.37
10.91
-1.85
-14.65
-25.31
-32.27
-34.19
-31.21
-23.69
-13.27
-1.22
10.62
20.62
27.58
30.07
27.86
20.78
10.17
-2.63
-15.36
-25.84
-32.56
-34.25
-31.14
-23.70
-13.61
-2.09
9.17
18.69
25.39
27.87
25.82
18.96
8.54
-4.15
-16.85
-27.37
-34.17
-35.91
-32.80
-25.20
-14.78
-2.75
9.10
19.18
26.27
28.92
26.84
19.81
9.21
-3.60
-16.27
-26.61
-33.12
-34.56
-31.27
-23.72
-13.59
-1.99
9.42
19.23
26.31
29.18
27.43
20.71
10.28
-2.50
-15.25
-25.73
-32.38
-33.96
-30.82
-23.43
-13.52
-2.30
8.45
17.25
23.10
24.90
22.85
17.11
9.16
0.11
-8.31
-14.67
-18.20
-18.21
-15.34
-10.08
-3.88
2.57
8.20
12.36
14.74
14.70
12.46
7.92
2.08
-4.49
-10.50
-14.91
-17.14
-16.60
-13.81
-9.03
-3.53
2.12
6.80
9.87
11.07
10.13
7.76
4.29
0.91
-2.01
-3.67
-3.78
-2.49
0.07
2.86
5.32
6.41
6.18
4.52
1.89
-1.01
-3.98
-6.26
-7.89
-8.24
-7.55
-5.54
-2.48
1.09
4.77
7.47
8.83
8.10
5.67
1.65
-3.24
-8.08
-12.27
-14.68
-15.00
-12.60
-8.00
-1.50
5.94
13.02
18.72
21.46
20.73
15.98
8.15
-1.80
-12.13
-21.08
-27.43
-29.80
-28.07
-22.07
-12.97
-1.74
9.91
20.19
27.68
30.74
28.96
22.12
11.54
-1.49
-14.79
-26.14
-33.78
-35.86
-31.97
-22.08
-7.88
8.84
25.40
39.25
48.50
51.37
47.68
37.66
23.20
6.26
-10.34
-23.88
-32.39
-34.21
-29.41
-18.57
-3.80
12.94
29.05
42.23
50.78
53.09
48.95
38.52
23.63
6.15
-11.10
-25.46
-35.04
-38.30
-35.43
-26.98
-14.91
-0.81
13.16
25.06
33.37
36.42
33.79
25.34
12.64
-2.56
-17.54
-29.67
-37.15
-38.57
-34.18
-24.61
-11.80
2.74
16.95
28.98
37.42
40.61
38.15
29.84
17.15
1.69
-13.89
-27.04
-35.90
-38.91
-36.11
-27.91
-16.12
-2.24
11.60
23.49
31.98
35.51
33.77
26.66
15.63
2.17
-11.27
-22.35
-29.42
-31.12
-27.68
-19.62
-8.73
3.66
15.75
25.98
33.21
35.99
33.96
26.84
15.89
2.46
-11.14
-22.61
-30.35
-32.95
-30.56
-23.52
-13.49
-1.67
10.11
20.25
27.52
30.43
28.67
22.00
11.76
-0.68
-13.02
-23.06
-29.34
-30.69
-27.50
-20.30
-10.80
-0.04
10.46
19.43
25.87
28.39
26.54
19.91
9.66
-2.94
-15.63
-26.16
-32.98
-34.73
-31.57
-23.84
-13.15
-0.73
11.56
22.06
29.50
32.39
30.46
23.53
12.98
0.16
-12.66
-23.28
-30.16
-31.96
-28.88
-21.31
-10.93
0.98
12.63
22.45
29.30
31.80
29.71
22.81
12.40
-0.25
-12.93
-23.49
-30.41
-32.33
-29.40
-21.96
-11.66
0.26
11.98
21.89
28.79
31.26
29.06
22.00
11.43
-1.32
-14.00
-24.45
-31.19
-32.97
-30.07
-22.92
-13.18
-2.01
8.93
18.18
24.67
26.98
24.77
17.76
7.22
-5.55
-18.27
-28.73
-35.41
-37.00
-33.72
-25.95
-15.37
-3.18
8.82
19.07
26.35
29.22
27.36
20.55
10.11
-2.63
-15.36
-25.88
-32.63
-34.26
-30.96
-23.10
-12.37
-0.04
12.09
22.41
29.69
32.53
30.63
23.80
13.35
0.63
-12.12
-22.71
-29.61
-31.49
-28.55
-21.15
-10.94
0.88
12.53
22.44
29.40
31.96
29.79
22.70
12.00
-0.91
-13.74
-24.27
-31.00
-32.67
-29.54
-22.03
-11.80
-0.02
11.62
21.59
28.74
31.58
29.74
22.92
12.38
-0.57
-13.68
-24.73
-32.10
-34.32
-31.36
-23.44
-12.17
1.06
14.20
25.33
33.04
35.87
33.65
26.36
15.49
2.42
-10.60
-21.44
-28.59
-30.69
-27.91
-20.61
-10.47
1.23
12.69
22.31
28.94
31.20
28.85
21.70
11.05
-1.80
-14.64
-25.31
-32.31
-34.27
-31.34
-23.82
-13.33
-1.11
11.00
21.31
28.55
31.27
29.17
22.10
11.44
-1.44
-14.26
-24.81
-31.57
-33.23
-29.97
-22.17
-11.51
0.78
12.89
23.22
30.57
33.48
31.66
24.89
14.47
1.71
-11.14
-21.89
-28.99
-31.03
-28.13
-20.56
-9.97
2.38
14.58
24.93
32.14
34.77
32.56
25.39
14.65
1.71
-11.16
-21.79
-28.69
-30.58
-27.71
-20.48
-10.57
0.83
12.04
21.55
28.23
30.67
28.53
21.53
10.95
-1.93
-14.88
-25.71
-32.86
-34.92
-31.97
-24.27
-13.44
-0.74
11.85
22.57
30.06
32.84
30.67
23.47
12.68
-0.30
-13.18
-23.79
-30.63
-32.41
-29.33
-21.80
-11.50
0.34
11.97
21.84
28.81
31.45
29.46
22.57
12.08
-0.76
-13.70
-24.57
-31.81
-33.96
-31.06
-23.31
-12.33
0.56
13.37
24.24
31.80
34.58
32.38
25.14
14.34
1.36
-11.53
-22.18
-29.10
-30.96
-27.96
-20.48
-10.20
1.65
13.28
23.14
30.05
32.61
30.52
23.57
13.04
0.21
-12.69
-23.51
-30.72
-32.92
-30.19
-22.80
-12.35
-0.09
12.07
22.38
29.53
32.05
29.71
22.39
11.52
-1.52
-14.44
-25.09
-31.97
-33.77
-30.68
-23.07
-12.62
-0.55
11.33
21.43
28.56
31.28
29.29
22.38
11.87
-0.96
-13.86
-24.66
-31.81
-33.88
-30.93
-23.21
-12.33
0.41
13.04
23.77
31.26
34.03
31.85
24.64
13.83
0.81
-12.17
-22.94
-30.01
-32.03
-29.19
-21.85
-11.68
0.10
11.67
21.44
28.25
30.67
28.43
21.33
10.68
-2.23
-15.17
-25.99
-33.12
-35.15
-32.10
-24.22
-13.14
-0.17
12.69
23.63
31.29
34.19
32.12
25.01
14.32
1.44
-11.35
-21.90
-28.70
-30.48
-27.44
-20.01
-9.86
1.81
13.25
22.97
29.83
32.42
30.40
23.52
13.02
0.19
-12.76
-23.66
-30.95
-33.20
-30.46
-22.99
-12.36
0.12
12.51
23.02
30.30
32.88
30.55
23.24
12.41
-0.53
-13.31
-23.76
-30.40
-31.97
-28.70
-21.04
-10.67
1.20
12.83
22.71
29.70
32.39
30.43
23.56
13.04
0.16
-12.85
-23.81
-31.15
-33.48
-30.85
-23.53
-13.11
-0.87
11.28
21.56
28.66
31.11
28.68
21.29
10.36
-2.72
-15.68
-26.37
-33.27
-35.04
-31.85
-24.05
-13.31
-0.94
11.21
21.47
28.60
31.19
28.96
21.77
10.96
-2.14
-15.30
-26.35
-33.79
-36.22
-33.77
-26.72
-16.70
-4.97
6.60
16.32
22.95
25.04
22.39
14.89
3.98
-8.95
-21.60
-31.80
-38.02
-38.91
-34.64
-25.57
-13.41
0.47
14.14
25.82
34.19
37.76
36.24
29.50
18.91
5.84
-7.43
-18.73
-26.50
-29.29
-27.17
-20.39
-10.54
1.10
12.60
22.24
28.71
30.57
27.59
19.73
8.44
-4.86
-17.87
-28.43
-35.04
-36.38
-32.68
-24.32
-13.00
-0.01
12.78
23.69
31.47
34.64
32.89
26.03
15.41
2.35
-10.88
-22.11
-29.70
-32.15
-29.39
-21.56
-10.29
3.02
16.21
27.28
34.76
37.19
34.46
26.68
15.45
2.28
-10.53
-20.81
-27.09
-28.06
-24.00
-15.39
-4.04
8.66
20.79
30.66
37.07
38.60
35.04
26.27
13.74
-1.10
-15.86
-28.23
-36.53
-39.21
-36.24
-27.86
-15.81
-1.61
12.42
24.16
32.01
34.43
31.29
22.77
10.60
-3.54
-17.15
-27.90
-34.19
-34.72
-29.81
-20.07
-7.43
6.57
19.88
30.71
37.73
39.46
35.64
26.24
12.84
-2.93
-18.46
-31.24
-39.45
-41.51
-37.46
-27.64
-13.95
1.89
17.41
30.28
38.77
41.21
37.47
27.76
13.95
-2.07
-17.56
-29.95
-37.49
-38.68
-33.78
-23.39
-9.57
5.95
20.83
32.99
40.92
43.00
39.00
28.97
14.66
-2.10
-18.50
-31.82
-40.07
-41.59
-36.47
-25.24
-10.03
7.20
23.82
37.45
46.37
48.94
45.01
34.82
20.26
3.31
-13.16
-26.49
-34.82
-36.64
-32.16
-21.94
-7.94
8.12
23.88
37.04
45.83
48.39
44.38
33.92
18.98
1.68
-15.03
-28.51
-37.08
-39.48
-36.05
-27.32
-15.07
-0.74
13.58
25.82
34.32
37.35
34.60
26.18
13.95
-0.21
-13.72
-24.37
-31.03
-32.86
-30.46
-24.28
-15.72
-5.63
4.69
13.85
20.80
24.15
23.67
19.19
11.94
3.04
-5.79
-13.02
-17.90
-19.65
-18.63
-14.91
-9.41
-2.52
4.90
11.84
17.50
20.58
20.71
17.49
11.85
4.68
-2.55
-8.54
-12.80
-14.81
-15.04
-13.50
-10.90
-7.24
-2.89
1.58
5.86
8.98
10.73
10.57
9.05
6.40
3.32
0.47
-2.13
-4.10
-5.80
-6.90
-7.57
-7.31
-5.93
-3.58
-0.36
2.79
5.47
6.85
7.17
6.46
5.18
3.79
2.07
0.18
-2.38
-5.22
-8.33
-10.91
-12.33
-12.33
-10.51
-7.43
-3.27
1.03
5.30
8.88
11.47
12.89
12.52
10.44
6.37
1.07
-5.01
-10.60
-14.62
-16.45
-15.49
-12.28
-7.14
-1.23
5.06
10.90
15.78
19.24
20.24
18.43
13.18
5.25
-4.58
-14.48
-22.66
-27.85
-28.90
-25.99
-19.32
-10.26
0.29
10.75
19.72
26.06
28.34
26.22
19.42
9.17
-3.26
-15.65
-25.86
-32.40
-33.96
-30.76
-23.14
-12.76
-0.80
10.96
20.97
28.03
30.74
28.77
21.91
11.45
-1.30
-14.12
-24.83
-31.88
-33.87
-30.89
-23.21
-12.48
0.04
12.42
22.93
30.26
32.97
30.80
23.65
12.92
-0.03
-12.93
-23.64
-30.67
-32.68
-29.84
-22.48
-12.24
-0.36
11.36
21.29
28.21
30.69
28.45
21.31
10.60
-2.37
-15.36
-26.23
-33.44
-35.56
-32.63
-24.89
-13.95
-1.12
11.63
22.45
29.98
32.76
30.57
23.35
12.56
-0.44
-13.39
-24.16
-31.24
-33.24
-30.29
-22.68
-12.07
0.25
12.40
22.69
29.85
32.48
30.31
23.22
12.55
-0.39
-13.40
-24.34
-31.67
-33.97
-31.27
-23.79
-13.16
-0.67
11.69
22.14
29.34
31.86
29.51
22.23
11.47
-1.39
-14.11
-24.55
-31.21
-32.77
-29.41
-21.47
-10.64
1.81
14.04
24.42
31.73
34.55
32.61
25.70
15.15
2.26
-10.75
-21.73
-29.13
-31.58
-29.16
-22.17
-12.20
-0.51
11.03
20.75
27.38
29.52
26.95
19.55
8.74
-4.12
-16.75
-27.01
-33.39
-34.61
-30.90
-22.66
-11.61
1.01
13.38
23.92
31.43
34.48
32.76
26.05
15.65
2.87
-10.03
-20.86
-28.10
-30.37
-27.83
-20.78
-10.85
0.74
12.19
21.87
28.54
30.79
28.32
21.01
10.22
-2.67
-15.39
-25.75
-32.25
-33.60
-30.02
-21.91
-10.95
1.60
13.95
24.49
32.01
35.05
33.30
26.53
16.05
3.17
-9.85
-20.81
-28.18
-30.53
-27.97
-20.78
-10.58
1.38
13.19
23.16
30.02
32.34
29.89
22.57
11.77
-1.17
-14.00
-24.59
-31.41
-33.13
-29.88
-22.00
-11.18
1.30
13.58
23.98
31.26
34.00
31.95
24.95
14.34
1.46
-11.47
-22.28
-29.48
-31.73
-29.21
-22.25
-12.50
-1.15
10.03
19.44
25.93
28.08
25.61
18.36
7.65
-5.19
-17.91
-28.36
-35.00
-36.49
-32.96
-24.74
-13.51
-0.54
12.24
23.14
30.85
33.90
32.05
25.14
14.58
1.74
-11.10
-21.76
-28.72
-30.66
-27.80
-20.52
-10.49
1.07
12.43
22.04
28.77
31.21
29.04
22.03
11.44
-1.44
-14.37
-25.16
-32.25
-34.22
-31.14
-23.30
-12.37
0.36
12.93
23.58
31.03
33.84
31.80
24.80
14.25
1.49
-11.24
-21.79
-28.64
-30.49
-27.54
-20.20
-10.15
1.41
12.73
22.30
28.99
31.40
29.23
22.24
11.72
-1.00
-13.64
-24.01
-30.62
-32.26
-29.25
-22.05
-12.33
-1.19
9.77
19.15
25.86
28.46
26.53
19.72
9.23
-3.63
-16.59
-27.41
-34.49
-36.43
-33.31
-25.43
-14.41
-1.53
11.25
22.16
29.83
32.77
30.74
23.61
12.83
-0.18
-13.09
-23.68
-30.44
-32.13
-29.06
-21.72
-11.86
-0.67
10.17
19.25
25.54
27.77
25.75
19.31
9.75
-1.73
-13.03
-22.23
-28.04
-29.35
-26.47
-19.79
-10.86
-0.73
8.98
16.91
22.14
23.59
21.37
15.55
7.49
-1.73
-10.35
-16.89
-20.53
-20.62
-17.82
-12.67
-6.65
-0.46
4.84
8.61
10.57
10.19
7.90
3.78
-1.08
-6.15
-10.31
-12.85
-13.52
-12.06
-9.26
-5.54
-2.08
0.77
2.31
2.35
1.15
-1.18
-3.62
-5.74
-6.51
-5.94
-3.74
-0.26
3.82
7.96
10.92
12.22
11.04
7.82
2.84
-2.90
-8.26
-12.56
-14.70
-14.58
-11.75
-6.88
-0.28
7.07
13.97
19.46
22.09
21.41
16.90
9.44
-0.22
-10.49
-19.64
-26.27
-28.67
-26.34
-18.94
-7.71
6.06
20.18
32.44
41.04
44.11
41.17
32.12
18.57
2.34
-13.85
-27.29
-35.93
-37.89
-32.96
-21.42
-5.31
13.26
31.36
46.29
56.10
59.13
55.33
45.08
30.37
13.11
-3.91
-18.08
-27.54
-30.74
-27.86
-19.43
-7.49
6.36
19.96
31.42
39.34
42.13
39.42
31.02
18.44
3.28
-11.81
-24.30
-32.40
-34.68
-31.37
-22.99
-11.37
2.11
15.52
27.15
35.63
39.36
37.84
30.75
19.43
5.33
-9.05
-21.31
-29.75
-32.96
-31.13
-24.68
-15.28
-4.13
7.05
16.78
23.91
26.96
25.54
19.31
9.50
-2.61
-14.71
-24.59
-30.76
-32.02
-28.74
-21.45
-11.86
-1.04
9.48
18.45
24.90
27.45
25.70
19.23
9.21
-3.15
-15.58
-25.86
-32.45
-34.04
-30.86
-23.32
-13.07
-1.32
10.22
20.04
26.96
29.58
27.58
20.72
10.30
-2.35
-14.96
-25.34
-32.02
-33.78
-30.97
-24.08
-14.79
-4.17
6.19
14.96
21.11
23.22
20.89
13.78
3.10
-9.79
-22.54
-32.90
-39.34
-40.68
-37.32
-29.79
-19.81
-8.53
2.34
11.41
17.65
19.87
18.04
12.18
3.70
-6.19
-15.54
-22.67
-26.62
-26.64
-23.37
-17.38
-10.22
-2.70
3.99
9.08
12.15
12.54
10.57
6.31
0.90
-4.99
-10.06
-13.40
-14.64
-13.45
-10.62
-6.64
-2.79
0.51
2.49
2.91
1.98
-0.21
-2.66
-4.90
-5.86
-5.49
-3.45
-0.07
3.97
8.11
11.06
12.27
10.89
7.32
1.86
-4.46
-10.39
-15.08
-17.24
-16.61
-12.74
-6.42
1.80
10.63
18.64
24.74
27.40
26.21
20.71
11.89
0.66
-11.19
-21.70
-29.16
-31.63
-28.48
-19.41
-5.94
10.24
26.50
40.28
49.65
52.80
49.50
39.89
25.82
9.27
-6.95
-20.10
-28.28
-29.91
-25.20
-14.79
-0.80
14.96
30.14
42.64
50.96
53.45
49.81
40.01
25.66
8.51
-8.69
-23.30
-33.40
-37.35
-35.18
-27.24
-15.39
-1.18
13.14
25.53
34.38
38.02
36.08
28.45
16.67
2.35
-11.94
-23.74
-31.36
-33.43
-30.23
-22.31
-11.51
0.89
13.11
23.66
31.41
34.87
33.59
27.20
16.88
3.93
-9.29
-20.49
-28.04
-30.58
-28.30
-21.61
-12.17
-1.12
9.86
19.30
26.08
28.78
27.01
20.48
10.40
-1.92
-14.22
-24.28
-30.62
-32.03
-28.87
-21.65
-12.07
-1.25
9.28
18.21
24.56
26.93
24.97
18.29
8.09
-4.37
-16.82
-27.07
-33.65
-35.35
-32.51
-25.58
-16.18
-5.36
5.31
14.45
20.95
23.30
21.06
13.88
3.03
-10.04
-22.89
-33.21
-39.51
-40.71
-37.35
-30.11
-20.75
-10.39
-0.59
7.41
12.78
14.49
12.65
7.36
-0.02
-8.42
-16.12
-21.73
-24.51
-23.89
-20.61
-15.22
-9.23
-3.36
1.31
4.19
5.19
4.18
2.02
-0.84
-3.20
-4.75
-4.86
-3.46
-0.94
2.38
5.32
7.25
7.16
5.18
1.35
-3.55
-8.48
-12.71
-15.00
-15.05
-12.26
-7.25
-0.40
7.23
14.38
20.10
22.97
22.56
18.36
11.21
1.83
-8.20
-17.14
-23.60
-25.83
-23.36
-15.85
-4.57
9.21
23.34
35.58
44.09
46.93
43.56
33.86
19.54
2.55
-14.26
-28.09
-36.91
-38.93
-34.07
-22.69
-6.83
11.46
29.33
44.12
53.88
56.88
53.04
42.70
27.85
10.47
-6.65
-20.86
-30.33
-33.51
-30.53
-21.95
-9.73
4.50
18.55
30.48
38.81
41.91
39.39
31.11
18.58
3.42
-11.71
-24.29
-32.52
-34.96
-31.81
-23.58
-12.10
1.22
14.42
25.75
33.85
37.11
35.10
27.56
15.87
1.52
-12.99
-25.23
-33.51
-36.41
-34.10
-26.98
-16.76
-4.68
7.47
18.10
26.00
29.66
28.66
22.70
13.02
0.93
-11.26
-21.33
-27.75
-29.24
-26.12
-18.87
-9.17
1.84
12.57
21.68
28.16
30.65
28.77
22.19
12.08
-0.37
-12.90
-23.33
-30.10
-31.85
-28.73
-21.11
-10.65
1.41
13.25
23.27
30.29
32.91
30.89
24.06
13.76
1.31
-11.01
-21.07
-27.42
-28.92
-26.01
-19.24
-10.32
-0.26
9.48
17.76
23.63
25.73
23.59
16.76
6.39
-6.26
-18.88
-29.25
-35.88
-37.58
-34.73
-27.80
-18.43
-7.66
2.91
11.90
18.20
20.41
18.24
11.44
1.35
-10.71
-22.48
-31.87
-37.51
-38.30
-34.64
-27.05
-17.21
-6.26
4.14
12.66
18.41
20.38
18.70
13.49
6.10
-2.45
-10.43
-16.47
-19.77
-19.70
-16.89
-11.90
-6.18
-0.45
4.24
7.29
8.53
7.62
5.16
1.41
-2.51
-6.18
-8.67
-9.54
-8.79
-6.41
-3.34
-0.08
2.25
3.53
3.36
1.94
-0.21
-2.82
-4.92
-6.22
-5.91
-4.22
-1.03
3.17
7.59
11.68
14.25
14.90
12.93
8.87
3.05
-3.50
-9.61
-14.52
-17.03
-16.95
-13.82
-8.33
-0.92
7.29
14.94
20.97
23.82
23.01
18.08
10.02
-0.18
-10.76
-19.90
-26.30
-28.47
-26.19
-19.28
-9.02
3.43
16.13
27.06
34.67
37.23
34.38
26.00
13.59
-1.28
-16.23
-28.85
-37.32
-39.84
-36.15
-26.32
-12.14
4.60
21.24
35.23
44.65
47.70
44.17
34.27
19.93
3.13
-13.27
-26.57
-34.83
-36.40
-31.40
-20.37
-5.45
11.42
27.66
40.94
49.58
51.94
47.82
37.40
22.50
5.00
-12.29
-26.67
-36.20
-39.20
-35.75
-26.32
-12.92
2.68
18.06
31.01
39.87
42.97
40.03
31.10
17.90
2.27
-13.01
-25.34
-32.93
-34.45
-30.28
-21.17
-9.12
4.38
17.44
28.40
35.98
38.58
35.72
27.10
14.12
-1.59
-17.36
-30.56
-39.31
-42.07
-38.96
-30.42
-18.26
-3.98
10.29
22.59
31.40
35.08
33.25
25.81
14.27
0.25
-13.71
-25.14
-32.34
-33.93
-30.17
-21.61
-10.12
2.92
15.65
26.43
34.06
37.04
35.00
27.66
16.32
2.37
-11.80
-23.84
-32.05
-34.94
-32.59
-25.31
-14.79
-2.33
10.17
21.00
28.87
32.28
30.94
24.63
14.67
2.39
-9.94
-20.14
-26.69
-28.32
-25.29
-18.06
-8.31
2.78
13.58
22.69
29.09
31.44
29.43
22.76
12.63
0.26
-12.11
-22.33
-28.91
-30.55
-27.51
-20.21
-10.29
1.10
12.26
21.76
28.47
30.98
28.97
22.18
11.87
-0.62
-12.98
-23.05
-29.35
-30.76
-27.72
-20.78
-11.64
-1.32
8.72
17.29
23.42
25.73
23.77
17.08
6.79
-5.86
-18.60
-29.21
-36.13
-38.02
-35.07
-27.64
-17.33
-5.36
6.47
16.53
23.56
26.09
23.85
16.65
5.90
-7.00
-19.74
-30.11
-36.60
-37.97
-34.53
-26.75
-16.35
-4.50
7.07
16.91
23.91
26.68
24.96
18.52
8.64
-3.37
-15.26
-24.95
-31.02
-32.34
-29.27
-22.32
-13.17
-2.95
6.67
14.36
19.27
20.50
18.34
13.03
5.99
-1.82
-8.84
-13.89
-16.36
-15.75
-12.71
-7.75
-2.23
3.29
7.89
11.10
12.76
12.39
10.31
6.48
1.81
-3.25
-7.61
-10.48
-11.52
-10.35
-7.64
-3.72
0.25
3.88
6.38
7.43
7.11
5.33
2.91
0.18
-1.86
-3.05
-2.86
-1.30
1.26
4.54
7.47
9.56
9.89
8.70
6.07
2.67
-0.70
-3.76
-5.81
-6.98
-6.84
-5.74
-3.50
-0.37
3.15
6.77
9.52
11.13
10.87
9.11
5.87
1.80
-2.32
-6.04
-8.38
-9.17
-7.85
-4.87
-0.35
5.05
10.38
14.99
17.61
17.90
15.29
10.55
4.30
-2.21
-7.81
-12.06
-14.36
-15.05
-13.96
-11.64
-8.00
-3.42
1.46
6.10
9.26
10.54
9.26
6.01
1.15
-4.31
-9.31
-13.22
-15.04
-14.65
-11.62
-6.62
0.01
7.32
14.15
19.69
22.62
22.62
19.24
13.36
5.77
-2.11
-8.87
-13.78
-15.96
-15.64
-12.73
-8.09
-2.08
4.46
10.54
15.49
18.10
18.10
15.06
9.77
2.86
-4.45
-10.90
-15.81
-18.20
-18.13
-15.28
-10.38
-3.75
3.73
10.87
16.77
19.94
19.93
16.26
9.90
1.77
-6.53
-13.48
-18.30
-20.07
-19.03
-15.11
-9.23
-1.84
6.04
13.24
18.87
21.57
21.03
16.83
9.92
1.10
-8.12
-16.20
-22.10
-24.53
-23.38
-18.42
-10.67
-0.95
9.32
18.54
25.51
28.69
27.67
22.17
13.43
2.75
-7.89
-16.61
-22.37
-24.23
-22.54
-17.49
-10.27
-1.61
7.27
15.09
20.95
23.56
22.75
18.28
11.23
2.49
-6.42
-14.07
-19.60
-21.99
-21.29
-17.35
-11.05
-2.88
6.04
14.36
20.96
24.21
23.59
18.69
10.66
0.73
-9.20
-17.33
-22.72
-24.46
-22.85
-17.98
-10.96
-2.44
6.42
14.32
20.32
23.10
22.45
18.11
11.17
2.54
-6.24
-13.74
-19.10
-21.36
-20.61
-16.77
-10.74
-3.05
5.21
12.81
18.82
21.83
21.51
17.44
10.64
2.04
-6.75
-14.18
-19.41
-21.46
-20.55
-16.62
-10.63
-3.11
4.91
12.21
17.90
20.64
20.11
15.93
9.10
0.45
-8.49
-16.21
-21.79
-24.14
-23.23
-18.90
-12.06
-3.31
6.09
14.70
21.34
24.38
23.35
17.87
9.16
-1.56
-12.32
-21.28
-27.31
-29.32
-27.46
-21.78
-13.46
-3.33
7.15
16.41
23.26
26.21
24.94
19.25
10.42
-0.38
-11.28
-20.45
-26.73
-28.84
-26.79
-20.54
-11.32
-0.08
11.54
21.77
29.22
32.19
30.24
23.14
12.29
-0.90
-14.16
-25.27
-32.69
-34.88
-31.75
-23.41
-11.42
2.82
17.10
29.24
37.53
40.19
36.89
27.67
14.25
-1.55
-17.12
-29.97
-38.37
-40.75
-37.12
-27.73
-14.34
1.47
17.29
30.74
39.90
42.87
39.25
29.15
14.48
-2.74
-19.59
-33.34
-42.03
-43.97
-39.15
-28.01
-12.59
5.12
22.36
36.58
45.89
48.59
44.56
34.09
19.17
1.78
-15.22
-29.12
-37.99
-40.22
-35.93
-25.69
-11.63
4.42
19.98
32.85
41.41
44.03
40.48
30.88
16.99
0.72
-15.10
-27.77
-35.43
-36.66
-31.79
-21.58
-8.11
6.95
21.42
33.40
41.41
43.80
40.15
30.37
16.06
-0.92
-17.68
-31.46
-40.32
-42.74
-38.96
-29.57
-16.55
-1.51
13.35
26.05
35.02
38.53
36.18
27.84
15.10
-0.28
-15.52
-27.99
-35.81
-37.50
-33.27
-23.73
-10.82
3.84
18.10
30.03
38.19
40.99
38.07
29.32
16.29
0.60
-15.13
-28.34
-37.17
-40.00
-36.85
-28.12
-15.64
-1.00
13.53
25.94
34.69
38.21
36.24
28.72
17.20
3.23
-10.71
-22.23
-29.69
-31.69
-28.46
-20.50
-9.62
2.83
15.02
25.37
32.70
35.54
33.51
26.33
15.28
1.69
-12.06
-23.68
-31.51
-34.10
-31.58
-24.28
-13.87
-1.62
10.59
21.15
28.79
32.07
30.69
24.41
14.54
2.38
-9.81
-19.85
-26.24
-27.73
-24.63
-17.43
-7.84
3.00
13.50
22.36
28.60
30.90
28.93
22.36
12.35
0.16
-11.98
-21.90
-28.13
-29.51
-26.41
-19.37
-10.04
0.52
10.83
19.64
25.94
28.36
26.45
19.82
9.66
-2.75
-15.07
-25.07
-31.29
-32.59
-29.43
-22.37
-13.10
-2.64
7.57
16.32
22.63
25.08
23.21
16.57
6.28
-6.38
-19.14
-29.75
-36.65
-38.49
-35.47
-27.95
-17.56
-5.52
6.36
16.45
23.51
26.06
23.84
16.67
5.96
-6.90
-19.60
-29.93
-36.39
-37.75
-34.27
-26.44
-15.92
-3.88
7.97
18.17
25.55
28.63
27.02
20.36
9.94
-2.95
-15.97
-26.88
-34.08
-36.18
-33.29
-25.73
-15.15
-2.87
9.10
19.01
25.62
27.71
25.41
18.94
9.86
-0.60
-10.54
-18.37
-23.08
-23.82
-21.07
-15.28
-8.01
-0.18
6.86
12.15
15.20
15.33
12.89
8.00
1.87
-4.80
-10.68
-14.81
-16.70
-15.93
-13.18
-8.88
-4.31
0.04
3.28
5.02
5.23
3.77
1.41
-1.53
-3.96
-5.62
-5.88
-4.67
-2.34
0.82
3.69
5.75
6.05
4.76
1.88
-1.99
-5.99
-9.64
-11.89
-12.54
-10.97
-7.60
-2.56
3.38
9.21
14.14
16.85
16.90
13.69
7.91
0.07
-8.51
-16.35
-22.26
-24.64
-23.01
-16.93
-7.43
4.49
16.96
28.03
36.08
39.30
37.16
29.40
17.44
2.84
-11.90
-24.24
-32.21
-33.91
-29.06
-17.85
-2.25
15.71
33.17
47.49
56.81
59.47
55.39
44.87
29.82
12.16
-5.34
-19.99
-29.86
-33.30
-30.37
-21.60
-8.98
5.77
20.34
32.70
41.37
44.73
42.45
34.41
22.15
7.26
-7.64
-20.05
-28.22
-30.69
-27.72
-19.81
-8.80
3.96
16.64
27.63
35.67
39.21
37.75
30.93
19.99
6.30
-7.71
-19.68
-27.94
-31.10
-29.37
-23.15
-14.13
-3.43
7.26
16.50
23.20
25.90
24.24
17.86
7.98
-4.12
-16.18
-26.01
-32.15
-33.45
-30.32
-23.30
-14.08
-3.66
6.50
15.18
21.41
23.76
21.78
15.02
4.65
-8.00
-20.55
-30.76
-37.17
-38.72
-35.93
-29.41
-20.84
-11.21
-1.96
5.73
10.94
12.46
10.12
3.77
-5.24
-15.68
-25.45
-32.79
-36.65
-36.36
-32.70
-26.39
-19.09
-11.65
-5.31
-0.79
1.62
1.58
-0.21
-3.32
-6.47
-9.14
-10.42
-9.98
-8.00
-4.66
-1.13
1.95
3.40
3.15
0.95
-2.67
-6.78
-10.54
-12.43
-11.81
-7.84
-1.10
7.84
17.61
26.61
33.49
36.48
34.95
28.36
17.83
4.60
-9.10
-20.86
-28.72
-30.64
-26.15
-15.24
0.20
18.12
35.65
50.10
59.62
62.56
58.84
48.71
34.00
16.54
-0.98
-15.90
-26.24
-30.26
-27.94
-19.70
-7.51
6.91
21.20
33.34
41.82
45.09
42.84
34.99
23.01
8.40
-6.34
-18.82
-27.38
-30.69
-29.05
-22.99
-14.24
-3.91
6.48
15.67
22.67
26.02
25.18
19.61
10.37
-1.35
-13.25
-23.12
-29.40
-30.83
-27.70
-20.45
-10.68
0.52
11.54
20.99
27.74
30.34
28.42
21.66
11.37
-1.12
-13.43
-23.37
-29.54
-30.91
-28.04
-21.56
-13.11
-3.61
5.68
13.70
19.53
21.70
19.61
12.69
2.06
-10.94
-23.82
-34.28
-40.80
-42.34
-39.50
-32.97
-24.49
-15.19
-6.67
-0.14
3.65
4.01
1.52
-3.30
-8.89
-14.33
-18.33
-20.16
-19.73
-17.05
-13.25
-9.04
-5.82
-3.90
-3.73
-5.09
-7.30
-9.87
-11.56
-11.92
-10.09
-6.41
-0.97
5.42
11.74
17.19
20.37
20.72
17.50
11.26
2.50
-7.36
-16.49
-23.20
-25.34
-22.02
-12.75
1.03
17.57
34.16
48.17
57.70
61.00
57.88
48.46
34.51
17.85
1.23
-12.67
-21.92
-24.90
-21.75
-13.04
-0.82
13.20
26.84
38.21
45.94
48.48
45.51
36.83
23.89
8.21
-7.67
-21.27
-30.85
-34.95
-33.73
-27.59
-18.20
-6.75
5.02
15.57
23.66
27.70
27.17
21.65
12.34
0.56
-11.35
-21.13
-27.26
-28.58
-25.50
-18.57
-9.47
0.78
10.77
19.29
25.41
27.71
25.76
19.11
8.90
-3.60
-16.06
-26.28
-32.78
-34.42
-31.59
-24.80
-15.64
-5.14
5.19
14.04
20.32
22.57
20.38
13.41
2.99
-9.46
-21.51
-30.98
-36.52
-37.30
-34.15
-27.90
-20.37
-12.55
-5.76
-0.82
1.87
1.83
-0.34
-4.24
-8.50
-12.43
-14.93
-15.50
-14.16
-11.07
-7.40
-3.90
-1.90
-1.61
-3.37
-6.71
-10.66
-14.34
-16.12
-15.33
-11.17
-4.31
4.63
14.29
23.19
30.23
33.88
33.61
28.77
20.17
8.65
-3.86
-15.03
-22.71
-24.48
-19.51
-7.62
9.18
28.51
47.08
62.00
71.43
74.03
70.12
60.27
46.45
30.44
14.77
1.75
-7.28
-11.44
-11.62
-8.83
-4.86
-0.44
3.72
7.33
10.13
11.01
9.33
4.14
-4.00
-14.23
-24.37
-32.17
-36.19
-35.65
-31.67
-25.59
-19.50
-14.24
-10.35
-7.49
-5.15
-3.69
-3.32
-5.04
-8.75
-14.21
-19.80
-23.63
-24.44
-21.58
-16.27
-9.96
-4.83
-1.62
-0.58
-0.84
-1.23
-1.46
-1.36
-1.88
-3.25
-5.84
-8.78
-10.93
-11.44
-9.70
-6.57
-2.92
-0.37
0.61
-0.26
-2.31
-4.43
-6.00
-6.17
-5.27
-3.30
-1.05
1.40
4.03
6.76
9.77
12.19
13.53
12.69
9.78
5.00
-0.62
-5.72
-9.60
-11.38
-11.31
-9.35
-6.34
-2.58
1.35
4.91
7.99
9.95
10.84
10.10
8.01
4.41
-0.23
-5.13
-9.70
-12.67
-13.73
-12.25
-8.81
-3.67
2.31
8.17
13.19
16.06
16.31
13.16
7.07
-1.60
-11.54
-20.97
-28.08
-30.55
-27.31
-17.78
-3.46
13.76
30.99
45.48
55.32
58.83
55.88
46.67
32.97
16.57
0.18
-13.54
-22.66
-25.57
-22.43
-13.86
-1.91
11.77
25.08
36.22
43.94
46.70
44.13
35.96
23.54
8.30
-7.27
-20.73
-30.31
-34.51
-33.43
-27.39
-18.04
-6.57
5.22
15.73
23.67
27.47
26.67
20.92
11.46
-0.37
-12.24
-21.91
-27.91
-29.10
-25.94
-19.03
-10.08
-0.08
9.59
17.83
23.73
25.95
24.01
17.45
7.37
-4.98
-17.30
-27.38
-33.77
-35.36
-32.54
-25.81
-16.75
-6.32
4.04
13.04
19.56
22.01
19.85
12.63
1.61
-11.75
-24.88
-35.43
-41.88
-43.20
-40.06
-33.20
-24.46
-14.95
-6.26
0.48
4.56
5.26
3.07
-1.62
-7.29
-13.05
-17.54
-19.95
-20.05
-17.72
-14.02
-9.62
-5.93
-3.39
-2.64
-3.65
-5.81
-8.56
-10.40
-10.61
-8.16
-3.34
3.57
11.54
19.23
25.53
28.75
28.19
23.11
14.33
2.80
-9.54
-20.43
-27.97
-29.99
-25.83
-15.27
-0.05
17.82
35.40
49.94
59.49
62.39
58.60
48.43
33.76
16.45
-0.77
-15.27
-25.09
-28.54
-25.64
-16.88
-4.29
10.39
24.83
36.98
45.40
48.50
46.00
37.82
25.46
10.48
-4.55
-17.18
-25.72
-28.82
-26.81
-20.21
-10.81
0.23
11.30
21.04
28.35
31.71
30.56
24.40
14.33
1.63
-11.35
-22.27
-29.52
-31.76
-29.25
-22.38
-12.79
-1.62
9.46
19.01
25.89
28.63
26.89
20.36
10.32
-1.91
-14.00
-23.75
-29.74
-30.93
-27.85
-21.15
-12.53
-2.93
6.37
14.36
20.16
22.38
20.44
13.77
3.45
-9.27
-21.98
-32.38
-38.96
-40.55
-37.64
-30.79
-21.69
-11.43
-1.60
6.46
11.80
13.30
11.02
5.06
-3.15
-12.43
-20.91
-27.09
-30.14
-29.48
-25.84
-19.85
-13.04
-6.14
-0.23
4.08
6.53
6.65
4.89
1.39
-2.74
-6.97
-10.21
-11.81
-11.65
-9.64
-6.74
-3.53
-1.21
-0.01
-0.44
-2.35
-5.17
-8.42
-10.79
-11.68
-10.15
-6.46
-0.79
5.97
12.66
18.34
21.52
21.65
18.00
11.24
2.02
-8.09
-17.25
-23.85
-25.94
-22.89
-14.31
-1.63
13.61
28.96
41.96
50.77
53.56
50.00
40.11
25.65
8.53
-8.46
-22.56
-31.80
-34.40
-30.35
-20.05
-5.54
11.28
27.80
41.64
51.07
54.42
51.48
42.38
28.87
12.72
-3.38
-16.90
-26.03
-29.27
-26.75
-18.94
-7.70
5.52
18.68
29.99
38.08
41.36
39.38
31.90
20.24
5.88
-8.73
-21.20
-29.82
-33.18
-31.45
-25.04
-15.62
-4.41
6.87
16.73
24.00
27.22
26.00
19.99
10.39
-1.50
-13.40
-23.11
-29.15
-30.35
-27.11
-20.00
-10.71
-0.30
9.81
18.42
24.62
27.04
25.28
18.87
8.95
-3.27
-15.52
-25.59
-31.98
-33.47
-30.39
-23.20
-13.55
-2.51
8.34
17.61
24.21
26.67
24.61
17.69
7.18
-5.56
-18.15
-28.39
-34.83
-36.36
-33.49
-26.79
-17.96
-8.00
1.68
9.87
15.62
17.59
15.42
8.76
-1.16
-13.07
-24.70
-33.98
-39.51
-40.27
-36.72
-29.41
-20.05
-9.76
-0.22
7.32
12.08
13.32
11.52
7.08
1.48
-4.44
-9.34
-12.36
-13.20
-11.60
-8.44
-4.29
-0.48
2.60
4.32
4.60
3.76
1.85
-0.34
-2.58
-4.01
-4.59
-3.87
-1.93
0.82
4.06
6.69
8.26
7.88
5.76
1.88
-3.07
-8.14
-12.59
-15.05
-15.06
-11.92
-6.21
1.64
10.38
18.56
24.97
27.93
26.87
21.26
12.15
0.62
-11.35
-21.67
-28.75
-30.85
-27.62
-18.95
-6.32
8.72
23.80
36.55
45.19
47.91
44.46
34.90
20.98
4.51
-11.81
-25.36
-34.20
-36.54
-32.28
-21.75
-6.96
10.14
26.89
40.83
50.19
53.29
49.95
40.35
26.30
9.66
-6.81
-20.48
-29.51
-32.34
-29.16
-20.54
-8.44
5.55
19.27
30.83
38.81
41.58
38.77
30.22
17.42
1.99
-13.45
-26.36
-34.93
-37.66
-34.70
-26.48
-14.83
-1.17
12.46
24.22
32.72
36.33
34.67
27.52
16.29
2.45
-11.51
-23.21
-30.99
-33.48
-30.91
-23.75
-13.73
-2.07
9.53
19.59
27.01
30.31
29.11
23.03
13.27
1.08
-11.28
-21.59
-28.29
-30.06
-27.10
-19.83
-9.88
1.57
12.81
22.38
29.15
31.73
29.80
23.10
12.91
0.51
-11.83
-21.92
-28.29
-29.75
-26.66
-19.54
-10.10
0.57
10.95
19.76
26.04
28.42
26.52
19.94
9.85
-2.53
-14.94
-25.20
-31.80
-33.45
-30.43
-23.14
-13.23
-1.83
9.39
18.94
25.68
28.17
26.06
19.09
8.56
-4.18
-16.83
-27.18
-33.79
-35.50
-32.69
-25.90
-16.77
-6.37
3.77
12.36
18.38
20.44
18.17
11.26
0.94
-11.49
-23.70
-33.56
-39.60
-40.69
-37.21
-29.69
-19.83
-8.81
1.62
10.06
15.61
17.32
15.51
10.46
3.66
-3.88
-10.56
-15.22
-17.28
-16.30
-13.07
-8.17
-3.03
1.83
5.59
7.92
8.85
8.07
6.09
2.94
-0.47
-3.85
-6.38
-7.59
-7.42
-5.67
-3.10
0.00
2.60
4.50
5.12
4.39
2.60
-0.08
-2.63
-4.68
-5.27
-4.45
-2.00
1.73
5.98
10.20
13.04
13.99
12.21
8.18
2.29
-4.34
-10.44
-15.20
-17.42
-16.96
-13.42
-7.56
0.13
8.47
16.11
21.95
24.49
23.31
17.97
9.50
-1.15
-12.25
-21.94
-28.84
-31.31
-28.98
-21.60
-10.46
3.21
17.32
29.64
38.40
41.60
38.70
29.57
15.88
-0.50
-16.76
-30.17
-38.70
-40.53
-35.51
-23.93
-7.84
10.68
28.73
43.56
53.22
55.98
51.83
41.18
26.06
8.48
-8.74
-22.95
-32.27
-35.05
-31.42
-21.89
-8.53
6.87
21.89
34.40
42.80
45.47
42.13
32.80
19.20
3.10
-12.72
-25.65
-33.88
-35.98
-32.23
-23.27
-11.04
2.94
16.63
28.24
36.35
39.32
36.68
28.21
15.37
-0.19
-15.79
-28.84
-37.47
-40.16
-37.00
-28.43
-16.28
-2.06
12.09
24.23
32.89
36.44
34.57
27.15
15.68
1.70
-12.29
-23.86
-31.32
-33.25
-29.85
-21.61
-10.36
2.54
15.19
25.98
33.68
36.83
35.08
28.16
17.37
4.05
-9.45
-20.84
-28.53
-31.13
-28.85
-22.08
-12.48
-1.22
9.99
19.66
26.66
29.52
27.89
21.44
11.45
-0.82
-13.07
-23.12
-29.48
-30.92
-27.76
-20.50
-10.81
0.21
10.98
20.15
26.69
29.23
27.39
20.82
10.71
-1.68
-14.12
-24.40
-31.01
-32.64
-29.51
-22.03
-11.85
-0.16
11.31
21.05
27.92
30.51
28.53
21.74
11.42
-1.11
-13.59
-23.85
-30.40
-32.04
-29.11
-22.10
-12.71
-2.04
8.36
17.16
23.34
25.53
23.36
16.48
6.09
-6.54
-19.17
-29.59
-36.31
-38.03
-34.98
-27.53
-17.30
-5.44
6.28
16.32
23.43
26.14
24.09
17.05
6.37
-6.54
-19.30
-29.69
-36.19
-37.59
-34.24
-26.67
-16.59
-5.20
5.81
15.01
21.38
23.69
21.88
15.88
7.04
-3.45
-13.61
-21.69
-26.55
-27.28
-24.32
-18.16
-10.35
-1.86
5.89
11.84
15.39
15.83
13.56
8.79
2.80
-3.65
-9.24
-13.02
-14.57
-13.49
-10.51
-6.08
-1.48
2.86
6.14
8.03
8.55
7.45
5.30
2.22
-0.86
-3.64
-5.36
-5.67
-4.70
-2.47
0.04
2.39
3.59
3.63
2.25
-0.27
-3.34
-6.66
-9.22
-10.71
-10.33
-8.28
-4.48
0.50
5.74
10.55
13.52
14.16
11.74
6.86
0.00
-7.59
-14.49
-19.68
-21.75
-20.40
-15.23
-7.22
2.83
13.37
22.72
29.63
32.51
30.95
24.62
14.66
2.19
-10.74
-21.98
-29.72
-31.99
-28.27
-18.41
-4.10
12.82
29.62
43.68
53.07
56.06
52.47
42.55
28.18
11.30
-5.26
-18.83
-27.52
-29.77
-25.80
-16.25
-3.20
11.61
25.95
37.88
45.95
48.56
45.34
36.15
22.56
6.24
-10.09
-23.82
-33.12
-36.52
-34.22
-26.71
-15.79
-2.83
10.26
21.72
30.18
33.94
32.50
25.52
14.34
0.45
-13.62
-25.45
-33.32
-35.86
-33.28
-26.06
-15.91
-4.04
7.82
18.19
25.91
29.51
28.58
22.74
13.19
1.21
-10.92
-20.99
-27.43
-28.96
-25.87
-18.61
-8.88
2.19
12.98
22.13
28.60
31.05
29.13
22.52
12.41
0.03
-12.36
-22.61
-29.19
-30.86
-27.89
-20.74
-11.05
0.04
10.89
20.11
26.59
28.95
26.82
19.92
9.52
-3.07
-15.55
-25.74
-32.22
-33.87
-31.15
-24.57
-15.79
-5.79
3.98
12.30
18.16
20.15
17.88
10.99
0.73
-11.59
-23.59
-33.16
-38.91
-39.85
-36.54
-29.64
-20.83
-11.19
-2.24
4.87
9.38
10.50
8.58
3.88
-2.18
-8.72
-14.30
-17.92
-19.18
-17.75
-14.47
-9.91
-5.45
-1.60
0.82
1.57
0.90
-1.05
-3.24
-5.19
-5.85
-5.23
-3.02
0.42
4.43
8.50
11.38
12.58
11.23
7.70
2.21
-4.23
-10.38
-15.30
-17.59
-16.85
-12.58
-5.57
3.50
13.19
21.90
28.36
30.95
29.19
22.70
12.63
0.12
-12.78
-23.94
-31.66
-34.09
-30.80
-21.67
-8.29
7.68
23.69
37.22
46.38
49.32
45.75
35.82
21.38
4.40
-12.29
-25.94
-34.58
-36.46
-31.58
-20.41
-5.06
12.47
29.44
43.36
52.43
54.99
50.93
40.49
25.57
8.10
-9.13
-23.45
-32.97
-36.09
-32.92
-24.00
-11.31
3.46
18.04
30.41
39.04
42.28
39.79
31.46
18.87
3.68
-11.43
-23.89
-31.92
-34.10
-30.70
-22.27
-10.70
2.59
15.66
26.85
34.82
38.01
35.96
28.41
16.70
2.35
-12.09
-24.17
-32.16
-34.64
-31.84
-24.23
-13.55
-1.08
11.36
22.20
30.20
33.80
32.59
26.22
15.96
3.17
-9.79
-20.62
-27.75
-29.90
-27.37
-20.67
-11.48
-0.90
9.49
18.41
24.83
27.38
25.65
19.25
9.31
-2.95
-15.30
-25.53
-32.10
-33.69
-30.51
-22.94
-12.66
-0.84
10.75
20.60
27.54
30.19
28.24
21.48
11.22
-1.23
-13.61
-23.74
-30.19
-31.78
-28.92
-22.12
-13.06
-2.79
7.21
15.71
21.72
23.84
21.62
14.66
4.13
-8.68
-21.42
-31.87
-38.53
-40.22
-37.33
-30.35
-20.93
-10.20
0.20
8.86
14.72
16.56
14.32
7.99
-0.98
-11.31
-20.96
-28.19
-32.01
-31.74
-28.13
-21.89
-14.67
-7.28
-0.90
3.77
6.43
6.63
4.92
1.51
-2.39
-6.26
-9.06
-10.26
-9.80
-7.61
-4.63
-1.36
1.04
2.36
2.12
0.44
-2.13
-5.19
-7.52
-8.62
-7.58
-4.64
0.15
6.03
11.98
17.17
20.12
20.29
16.91
10.63
2.05
-7.37
-15.92
-22.19
-24.39
-22.00
-14.62
-3.49
10.10
23.99
35.95
44.27
47.11
44.08
35.08
21.74
5.80
-10.11
-23.34
-31.95
-34.09
-29.62
-18.84
-3.75
13.69
30.75
44.91
54.39
57.47
54.04
44.27
29.99
13.03
-3.86
-18.07
-27.69
-31.12
-28.45
-20.16
-8.20
5.82
19.71
31.52
39.81
43.00
40.70
32.75
20.55
5.63
-9.50
-22.40
-31.32
-34.81
-33.06
-26.48
-16.83
-5.32
6.30
16.55
24.29
28.04
27.36
21.85
12.67
1.07
-10.68
-20.37
-26.50
-27.86
-24.81
-17.84
-8.63
1.80
11.96
20.62
26.80
29.11
27.14
20.50
10.38
-1.93
-14.10
-23.93
-30.04
-31.38
-28.49
-21.96
-13.40
-3.70
5.86
14.18
20.29
22.67
20.68
13.76
3.04
-10.10
-23.15
-33.76
-40.40
-41.98
-39.07
-32.33
-23.53
-13.77
-4.69
2.48
6.90
7.73
5.37
0.15
-6.39
-13.28
-19.02
-22.59
-23.62
-21.88
-18.34
-13.72
-9.47
-6.11
-4.39
-4.39
-5.69
-7.95
-9.98
-11.22
-10.65
-8.38
-4.31
0.96
6.55
11.75
15.15
16.15
13.90
8.87
1.50
-6.91
-14.72
-20.50
-22.39
-19.75
-12.11
-0.66
13.30
27.59
39.92
48.49
51.35
48.00
38.30
23.91
6.70
-10.49
-24.88
-34.40
-37.15
-32.94
-22.00
-6.36
11.95
30.02
45.13
55.31
58.86
55.71
46.20
32.29
15.83
-0.51
-14.22
-23.53
-26.91
-24.50
-16.79
-5.66
7.40
20.35
31.44
39.34
42.48
40.46
32.99
21.41
7.14
-7.37
-19.74
-28.30
-31.70
-30.15
-24.10
-15.20
-4.59
6.12
15.53
22.55
25.68
24.49
18.53
8.97
-2.94
-14.93
-24.78
-30.97
-32.27
-29.00
-21.65
-11.88
-0.81
9.99
19.19
25.75
28.29
26.44
19.88
9.82
-2.44
-14.63
-24.56
-30.80
-32.24
-29.32
-22.61
-13.74
-3.69
6.15
14.60
20.67
22.91
20.78
13.82
3.19
-9.74
-22.51
-32.83
-39.20
-40.56
-37.50
-30.68
-21.84
-12.06
-2.84
4.63
9.54
10.87
8.77
3.33
-4.05
-12.31
-19.75
-25.01
-27.42
-26.45
-22.88
-17.33
-11.28
-5.42
-0.78
2.14
3.28
2.50
0.60
-2.03
-4.26
-5.80
-6.00
-4.76
-2.38
0.89
3.94
6.22
6.70
5.48
2.48
-1.66
-6.02
-9.93
-12.13
-12.27
-9.67
-4.90
1.70
9.10
16.04
21.55
24.20
23.56
19.07
11.60
1.90
-8.42
-17.59
-24.23
-26.62
-24.32
-17.00
-5.93
7.59
21.45
33.44
41.85
44.82
41.95
33.13
19.98
4.24
-11.42
-24.40
-32.71
-34.56
-29.79
-18.73
-3.40
14.20
31.32
45.42
54.68
57.43
53.56
43.31
28.55
11.18
-6.02
-20.39
-30.05
-33.38
-30.53
-21.99
-9.75
4.57
18.77
30.89
39.45
42.81
40.59
32.63
20.41
5.56
-9.30
-21.67
-29.81
-32.36
-29.60
-22.08
-11.62
0.52
12.56
22.98
30.56
33.74
32.01
24.97
13.88
0.11
-13.90
-25.76
-33.76
-36.48
-34.05
-26.84
-16.53
-4.39
7.78
18.36
26.10
29.55
28.36
22.26
12.54
0.48
-11.64
-21.65
-28.03
-29.52
-26.44
-19.28
-9.74
1.06
11.53
20.37
26.60
28.88
26.86
20.19
10.07
-2.28
-14.59
-24.72
-31.22
-32.88
-30.06
-23.22
-13.97
-3.34
7.13
16.12
22.53
24.88
22.72
15.67
4.99
-7.97
-20.77
-31.18
-37.69
-39.22
-36.23
-29.31
-20.17
-9.91
-0.08
8.03
13.49
15.15
13.00
7.01
-1.44
-11.17
-20.27
-27.14
-30.84
-30.69
-27.40
-21.57
-14.77
-7.86
-2.06
1.89
3.74
3.20
1.06
-2.21
-5.31
-7.78
-8.77
-8.03
-5.84
-2.45
0.86
3.40
4.02
2.71
-0.59
-5.20
-10.05
-14.24
-16.24
-15.43
-11.07
-3.83
5.65
15.90
25.24
32.31
35.38
33.92
27.45
17.13
4.17
-9.23
-20.74
-28.41
-30.21
-25.67
-14.77
0.61
18.43
35.85
50.21
59.66
62.58
58.87
48.76
34.08
16.66
-0.75
-15.48
-25.57
-29.34
-26.89
-18.74
-6.87
7.07
20.89
32.73
41.19
44.73
42.94
35.60
24.04
9.68
-5.03
-17.71
-26.65
-30.40
-29.11
-23.15
-14.20
-3.41
7.50
17.09
24.18
27.31
26.04
19.99
10.37
-1.53
-13.43
-23.12
-29.16
-30.41
-27.34
-20.51
-11.56
-1.49
8.32
16.73
22.80
25.10
23.16
16.51
6.28
-6.24
-18.70
-28.85
-35.25
-36.80
-33.95
-27.26
-18.38
-8.28
1.59
9.98
15.89
17.94
15.78
9.11
-0.78
-12.56
-23.91
-32.77
-37.86
-38.29
-34.79
-28.07
-19.90
-11.31
-3.71
1.95
5.19
5.51
3.58
-0.15
-4.27
-8.13
-10.64
-11.35
-10.31
-7.64
-4.45
-1.41
0.28
0.49
-1.04
-3.89
-7.29
-10.69
-12.87
-13.40
-11.52
-7.58
-1.72
5.18
12.00
17.78
20.94
20.85
16.80
9.48
-0.37
-11.11
-20.79
-27.69
-29.72
-26.14
-16.58
-2.52
14.24
31.00
45.12
54.68
57.91
54.62
44.96
30.73
13.82
-3.01
-17.05
-26.31
-29.06
-25.34
-15.63
-2.02
13.66
28.94
41.65
50.21
53.07
49.99
40.99
27.71
11.78
-4.18
-17.67
-26.93
-30.43
-28.33
-21.07
-10.45
2.14
14.77
25.72
33.68
37.05
35.40
28.43
17.43
3.82
-9.97
-21.59
-29.41
-32.11
-29.96
-23.44
-14.23
-3.45
7.29
16.65
23.55
26.57
25.26
19.22
9.60
-2.35
-14.33
-24.12
-30.23
-31.48
-28.27
-21.15
-11.79
-1.25
9.01
17.76
24.04
26.47
24.63
18.09
8.01
-4.36
-16.73
-26.90
-33.39
-35.01
-32.10
-25.13
-15.74
-4.95
5.67
14.78
21.26
23.64
21.48
14.39
3.66
-9.31
-22.07
-32.35
-38.64
-39.89
-36.65
-29.61
-20.54
-10.55
-1.14
6.49
11.55
13.04
11.06
5.69
-1.72
-10.11
-17.73
-23.24
-25.91
-25.26
-22.07
-16.99
-11.50
-6.27
-2.30
-0.05
0.47
-0.85
-3.12
-5.90
-7.98
-9.09
-8.60
-6.53
-3.32
0.59
3.93
6.06
5.94
3.77
-0.35
-5.57
-10.74
-14.96
-16.83
-15.87
-11.47
-4.34
4.88
14.80
23.81
30.68
33.78
32.63
26.81
17.37
5.38
-7.16
-18.05
-25.41
-27.17
-22.75
-12.05
3.13
20.77
38.02
52.25
61.62
64.50
60.81
50.74
36.12
18.78
1.51
-13.01
-22.86
-26.46
-24.04
-16.24
-5.07
7.88
20.59
31.36
38.91
41.68
39.23
31.21
18.91
3.78
-11.71
-25.08
-34.52
-38.45
-36.90
-30.15
-19.88
-7.38
5.40
16.70
25.18
29.27
28.61
22.93
13.53
1.73
-10.18
-20.01
-26.25
-27.66
-24.58
-17.53
-8.21
2.27
12.40
20.93
26.94
29.09
27.03
20.40
10.36
-1.85
-13.97
-23.86
-30.13
-31.66
-28.92
-22.41
-13.73
-3.78
6.06
14.60
20.80
23.12
20.98
13.88
3.04
-10.12
-23.03
-33.38
-39.68
-40.97
-37.98
-31.49
-23.29
-14.41
-6.31
-0.03
3.76
4.32
2.08
-2.63
-8.34
-14.13
-18.62
-20.96
-20.96
-18.58
-14.92
-10.73
-7.40
-5.29
-4.92
-6.14
-8.34
-11.01
-12.86
-13.34
-11.55
-7.79
-2.26
4.21
10.55
15.99
19.23
19.81
17.02
11.40
3.40
-5.66
-14.08
-20.33
-22.42
-19.65
-11.54
0.57
15.23
30.08
42.77
51.53
54.53
51.36
41.94
27.92
11.10
-5.80
-20.03
-29.55
-32.49
-28.69
-18.43
-3.71
13.51
30.50
44.74
54.41
57.85
54.94
45.89
32.51
16.57
0.69
-12.65
-21.82
-25.46
-23.89
-17.70
-8.68
1.98
12.69
22.11
29.18
32.35
31.05
24.73
14.46
1.51
-11.74
-22.95
-30.50
-33.04
-30.79
-24.13
-14.68
-3.55
7.59
17.26
24.29
27.20
25.61
19.20
9.22
-3.01
-15.18
-25.11
-31.30
-32.59
-29.37
-22.22
-12.81
-2.23
8.04
16.76
22.97
25.28
23.30
16.61
6.38
-6.09
-18.49
-28.63
-35.04
-36.63
-33.85
-27.27
-18.53
-8.61
1.02
9.16
14.82
16.69
14.45
7.84
-1.86
-13.34
-24.36
-32.90
-37.72
-37.94
-34.22
-27.24
-18.70
-9.62
-1.41
4.93
8.86
9.77
8.15
4.29
-0.45
-5.39
-9.35
-11.63
-12.03
-10.34
-7.43
-3.77
-0.59
1.81
2.81
2.38
0.86
-1.60
-4.05
-6.18
-7.06
-6.70
-4.74
-1.44
2.57
6.75
9.72
10.87
9.29
5.35
-0.63
-7.56
-14.08
-19.16
-21.28
-20.02
-14.85
-6.69
3.60
14.38
23.89
30.81
33.56
31.79
25.21
15.04
2.49
-10.40
-21.50
-29.12
-31.47
-28.17
-19.16
-6.02
9.62
25.28
38.51
47.43
50.17
46.44
36.34
21.75
4.64
-12.09
-25.72
-34.31
-36.21
-31.52
-20.78
-6.07
10.70
26.95
40.36
49.21
51.80
47.93
37.74
23.05
5.72
-11.42
-25.70
-35.18
-38.19
-34.75
-25.29
-11.76
4.07
19.74
33.01
42.19
45.56
42.85
34.10
20.99
5.29
-10.29
-23.19
-31.64
-34.24
-31.27
-23.36
-12.42
0.16
12.52
23.10
30.67
33.71
31.74
24.44
13.08
-0.90
-15.02
-26.84
-34.62
-36.89
-33.75
-25.55
-14.03
-0.53
12.95
24.59
33.01
36.61
35.05
28.15
17.33
4.05
-9.26
-20.31
-27.54
-29.73
-27.23
-20.60
-11.57
-1.21
8.97
17.75
24.15
26.81
25.26
19.05
9.25
-2.94
-15.31
-25.64
-32.37
-34.10
-30.95
-23.20
-12.48
-0.02
12.30
22.81
30.22
33.10
31.19
24.36
13.99
1.45
-10.99
-21.16
-27.60
-29.11
-26.04
-18.93
-9.51
1.10
11.36
20.00
26.10
28.33
26.34
19.75
9.69
-2.66
-15.10
-25.47
-32.25
-34.08
-31.15
-23.78
-13.60
-1.80
9.82
19.69
26.59
29.10
26.94
19.93
9.43
-3.20
-15.66
-25.78
-32.13
-33.57
-30.49
-23.47
-14.19
-3.71
6.51
15.21
21.42
23.75
21.75
14.98
4.62
-8.07
-20.76
-31.25
-37.98
-39.68
-36.60
-29.13
-18.89
-7.07
4.55
14.39
21.24
23.71
21.68
15.08
5.39
-6.06
-17.08
-25.74
-30.82
-31.37
-27.94
-21.12
-12.58
-3.31
5.26
12.08
16.50
17.70
15.94
11.28
4.97
-2.15
-8.62
-13.32
-15.67
-15.16
-12.48
-8.09
-3.34
1.19
4.51
6.19
6.19
4.43
1.77
-1.39
-3.95
-5.70
-6.07
-5.06
-3.00
-0.06
2.81
5.24
6.29
6.05
4.28
1.39
-1.98
-5.47
-8.09
-9.60
-9.26
-7.37
-3.81
0.82
5.60
9.74
11.77
11.14
7.14
0.53
-8.06
-17.20
-25.45
-31.83
-35.09
-35.05
-31.38
-24.96
-16.42
-7.18
1.24
7.43
9.61
7.07
-0.72
-12.62
-27.32
-42.42
-55.70
-65.02
-68.74
-66.39
-57.93
-45.12
-29.77
-14.71
-2.20
6.14
9.92
10.40
9.37
9.70
12.99
20.42
31.45
44.67
58.09
69.31
76.63
78.22
73.75
63.14
47.78
29.64
11.35
-4.14
-14.61
-18.05
-14.34
-3.97
10.78
27.65
43.78
56.60
64.46
65.86
60.87
49.80
34.50
16.79
-0.67
-15.28
-25.19
-28.76
-26.14
-17.87
-5.96
7.92
21.53
32.91
40.60
42.95
39.62
30.48
17.09
1.16
-14.62
-27.64
-36.11
-38.58
-35.26
-26.68
-14.71
-0.82
12.96
24.81
33.31
36.81
34.87
27.27
15.42
0.87
-13.83
-26.20
-34.48
-37.17
-34.42
-26.66
-15.67
-2.82
9.96
20.96
28.91
32.31
30.81
24.19
13.79
0.97
-11.91
-22.59
-29.50
-31.35
-28.45
-21.27
-11.53
-0.35
10.67
20.17
27.10
30.04
28.58
22.32
12.47
0.29
-11.95
-22.02
-28.43
-29.97
-26.96
-19.84
-10.25
0.74
11.55
20.82
27.45
30.02
28.12
21.41
11.10
-1.51
-14.15
-24.59
-31.30
-32.98
-29.84
-22.28
-11.95
-0.05
11.64
21.59
28.63
31.33
29.40
22.64
12.33
-0.25
-12.85
-23.31
-30.10
-31.89
-28.84
-21.35
-11.07
0.75
12.33
22.10
28.92
31.42
29.36
22.53
12.22
-0.28
-12.78
-23.14
-29.87
-31.67
-28.77
-21.54
-11.66
-0.30
10.82
20.21
26.76
29.08
26.90
19.97
9.58
-2.99
-15.50
-25.79
-32.39
-34.07
-31.10
-23.93
-14.20
-3.05
7.88
17.15
23.67
26.05
23.93
17.03
6.62
-6.00
-18.56
-28.85
-35.37
-36.86
-33.57
-25.91
-15.53
-3.60
8.16
18.24
25.44
28.33
26.55
19.83
9.47
-3.19
-15.83
-26.22
-32.81
-34.31
-30.96
-23.18
-12.66
-0.63
11.13
21.09
28.11
30.83
29.05
22.61
12.83
0.96
-10.89
-20.72
-27.12
-28.83
-26.04
-19.02
-9.35
1.84
12.84
22.13
28.58
30.82
28.57
21.64
11.30
-1.16
-13.53
-23.70
-30.21
-31.81
-28.77
-21.52
-11.72
-0.55
10.27
19.25
25.39
27.47
25.46
19.35
10.47
-0.02
-10.21
-18.38
-23.41
-24.32
-21.46
-15.22
-7.11
1.96
10.54
17.50
22.07
23.23
20.97
15.18
7.06
-2.41
-11.48
-18.59
-22.75
-23.13
-20.20
-14.37
-7.09
0.83
8.15
13.94
17.63
18.36
16.25
11.20
4.31
-3.66
-11.16
-16.89
-20.03
-19.83
-16.82
-11.41
-5.05
1.50
7.07
11.00
13.02
12.69
10.40
6.15
0.80
-5.33
-11.26
-16.16
-19.39
-20.06
-18.25
-13.90
-8.13
-1.72
3.79
7.26
8.07
5.87
1.59
-3.94
-9.11
-13.31
-15.96
-17.18
-17.45
-16.99
-16.15
-14.72
-12.68
-9.27
-3.75
4.99
17.66
33.67
51.01
65.96
75.06
75.70
68.29
55.67
41.98
30.87
23.84
20.51
19.12
18.34
17.48
16.80
16.68
16.88
16.80
15.45
12.50
8.06
3.11
-1.28
-4.22
-5.42
-5.29
-4.59
-4.16
-4.41
-5.35
-6.46
-7.14
-6.89
-5.58
-3.49
-1.12
1.03
2.69
3.87
4.85
5.98
7.54
9.61
12.05
14.65
17.12
19.33
21.22
22.85
24.29
25.57
26.64
27.30
27.34
26.54
24.76
21.87
17.82
12.52
5.97
-1.73
-10.42
-19.89
-29.81
-39.76
-49.25
-57.79
-64.94
-70.29
-73.55
-74.61
-73.54
-70.54
-65.91
-60.02
-53.38
-46.47
-39.77
-33.66
-28.44
-24.46
-21.80
-20.42
-20.22
-21.08
-22.86
-25.38
-28.45
-31.73
-34.97
-37.74
-39.53
-39.85
-38.32
-34.70
-28.83
-20.74
-9.68
3.75
18.63
34.04
49.15
63.20
75.59
85.91
94.00
99.99
104.03
106.34
107.26
106.90
105.22
102.02
97.18
90.87
83.60
76.31
69.53
64.04
60.17
57.76
56.16
54.60
52.52
49.78
46.53
42.67
38.11
32.14
23.55
10.92
-6.68
-29.17
-55.26
-80.55
-102.61
-119.86
-132.01
-139.89
-144.98
-148.87
-152.98
-158.49
-166.00
-175.10
-182.93
-184.64
-174.84
-150.27
-111.86
-65.23
-18.85
19.31
44.49
56.86
60.10
58.87
56.31
53.36
49.52
44.37
38.52
33.34
30.20
29.43
30.09
30.44
28.70
24.08
17.04
8.99
1.54
-4.10
-7.63
-9.78
-11.92
-15.49
-21.34
-29.42
-38.92
-48.61
-57.31
-64.60
-70.54
-75.93
-81.91
-89.44
-98.83
-109.62
-120.49
-129.83
-136.14
-138.62
-137.42
-133.41
-127.60
-120.53
-112.08
-101.03
-85.62
-64.34
-36.70
-3.17
35.06
76.41
118.62
158.35
191.65
214.00
223.69
222.48
215.30
207.89
204.23
205.57
208.48
208.36
201.76
188.39
170.10
149.57
128.73
108.33
88.82
70.75
55.44
43.98
36.52
31.88
28.08
22.75
14.20
1.75
-14.33
-32.41
-49.98
-64.21
-72.24
-72.59
-65.85
-54.46
-41.34
-28.89
-17.95
-8.23
0.78
8.91
15.15
18.55
18.81
17.21
15.62
15.80
18.35
22.15
25.04
24.75
19.73
9.35
-6.01
-25.86
-48.91
-72.63
-93.00
-105.47
-106.74
-95.94
-76.80
-55.40
-37.34
-25.09
-17.42
-11.42
-5.64
-2.03
-5.35
-20.09
-46.64
-79.99
-111.35
-131.96
-137.11
-127.72
-109.01
-87.45
-67.50
-50.22
-34.03
-17.38
0.08
16.97
31.09
40.75
45.78
47.43
47.86
48.90
51.23
54.39
57.20
58.25
56.82
53.20
48.53
44.24
41.41
40.31
40.46
40.93
40.80
39.59
37.47
35.06
33.08
32.05
31.99
32.66
33.57
34.33
34.77
34.99
35.24
35.72
36.48
37.32
37.92
37.93
37.00
34.94
31.75
27.64
22.88
17.79
12.73
8.13
4.53
2.44
2.28
4.39
8.84
15.41
23.54
32.16
40.13
46.31
49.80
49.84
46.23
39.13
28.92
16.10
1.24
-14.97
-31.87
-48.05
-63.08
-76.46
-87.65
-96.11
-101.83
-104.96
-106.13
-106.41
-107.08
-109.09
-112.25
-115.84
-117.55
-115.31
-107.72
-94.31
-75.56
-52.69
-27.67
-2.87
19.14
36.18
46.87
51.22
50.63
47.26
43.14
39.48
36.61
34.30
32.29
30.44
28.86
27.44
25.92
24.12
21.66
18.54
15.05
11.59
8.47
5.79
3.47
1.22
-1.25
-4.18
-7.57
-11.25
-14.92
-18.43
-21.69
-24.78
-27.83
-31.04
-34.49
-38.04
-41.29
-43.72
-44.66
-43.45
-39.45
-32.24
-21.49
-7.23
9.97
29.51
50.41
71.25
90.40
106.17
117.04
121.82
119.82
110.93
95.61
74.82
49.97
22.63
-5.64
-33.53
-59.97
-84.34
-106.31
-125.91
-143.32
-158.92
-173.55
-187.48
-200.89
-213.75
-225.85
-236.80
-245.89
-252.41
-255.39
-253.81
-246.62
-233.35
-213.39
-186.55
-153.21
-114.20
-70.97
-25.32
20.72
65.02
105.75
141.37
170.83
193.55
209.59
219.45
224.19
225.05
223.53
220.87
218.12
215.89
214.25
212.89
211.23
208.41
203.62
196.21
185.89
172.65
156.89
139.28
120.73
102.25
84.81
69.26
56.07
45.36
36.81
29.76
23.31
16.48
8.43
-1.42
-13.12
-26.45
-40.71
-55.25
-69.34
-82.57
-94.79
-105.97
-116.15
-125.18
-132.87
-138.94
-143.25
-145.93
-147.39
-148.25
-148.85
-149.28
-148.99
-146.98
-142.10
-133.54
-121.17
-105.43
-87.51
-68.62
-50.06
-32.35
-15.76
0.04
15.87
32.71
51.51
72.36
93.98
113.05
125.04
125.56
112.83
89.21
61.27
38.10
27.97
35.71
61.15
100.34
147.11
194.83
237.52
269.19
283.84
275.87
242.13
183.60
106.47
21.13
-60.77
-128.66
-175.75
-198.37
-196.15
-170.55
-125.00
-65.50
-0.52
58.89
101.95
120.39
111.71
79.63
33.46
-14.96
-55.22
-80.46
-89.32
-84.38
-70.81
-53.19
-34.49
-16.38
0.66
15.13
25.30
29.24
26.94
20.34
13.21
9.25
9.78
13.89
18.11
19.49
16.57
10.86
5.63
3.48
5.65
10.06
13.79
13.65
8.76
0.26
-9.49
-18.12
-25.31
-31.46
-37.66
-43.21
-45.86
-42.47
-31.31
-15.03
0.53
7.25
-0.12
-21.95
-52.33
-81.95
-101.62
-105.61
-94.08
-70.99
-42.97
-15.62
7.40
25.05
37.78
45.67
48.48
44.97
35.20
20.99
6.72
-2.20
-1.75
8.66
24.61
38.99
44.09
34.92
10.25
-27.76
-74.38
-124.10
-170.39
-206.90
-227.52
-228.47
-209.34
-173.68
-128.12
-79.36
-33.00
8.64
44.85
75.63
100.08
116.87
125.94
129.01
130.19
133.03
138.75
144.89
147.01
141.43
127.76
110.28
94.73
85.54
82.63
81.52
76.10
61.88
38.57
8.95
-22.61
-53.12
-80.90
-104.92
-122.68
-129.69
-121.20
-93.88
-49.65
4.64
57.51
97.19
115.14
108.63
81.49
41.32
-2.66
-42.79
-73.83
-93.09
-99.34
-92.45
-74.26
-48.25
-20.28
3.38
17.84
21.53
16.65
7.63
-0.25
-3.53
-0.83
7.01
18.17
30.66
43.12
54.78
64.91
73.19
79.00
82.18
82.56
80.43
76.23
70.42
63.47
55.64
47.12
38.03
28.62
19.21
10.22
2.17
-4.65
-10.18
-14.59
-18.17
-21.30
-24.13
-26.72
-28.93
-30.57
-31.53
-31.81
-31.59
-31.11
-30.61
-30.20
-29.92
-29.66
-29.29
-28.71
-27.89
-26.88
-25.74
-24.58
-23.45
-22.37
-21.34
-20.34
-19.35
-18.38
-17.42
-16.47
-15.56
-14.67
-13.82
-13.00
-12.21
-11.45
-10.73
-10.05
-9.34
-8.64
-7.98
-7.37
-6.80
-6.27
-5.79
-5.34
-4.94
-4.57
-4.24
-3.94
-3.67
-3.43
-3.20
-2.99
-2.80
-2.62
-2.46
-2.31
-2.18
-2.07
-1.95
-1.85
-1.75
-1.66
-1.58
-1.50
-1.43
-1.37
-1.31
-1.25
-1.20
-1.15
-1.11
-1.06
-1.02
-0.98
-0.95
-0.92
-0.88
-0.86
-0.83
-0.80
-0.78
-0.75
-0.73
-0.71
-0.69
-0.67
-0.65
-0.64
-0.62
-0.60
-0.59
-0.57
-0.56
-0.54
-0.52
-0.52
-0.50
-0.49
-0.48
-0.47
-0.45
-0.44
-0.43
-0.42
-0.41
-0.40
-0.39
-0.38
-0.38
-0.36
-0.36
-0.35
-0.34
-0.33
-0.32
-0.32
-0.31
-0.32
-0.32
-0.32
-0.30
-0.26
-0.21
-0.17
-0.17
-0.25
-0.39
-0.57
-0.71
-0.75
-0.64
-0.38
-0.03
0.29
0.45
0.42
0.19
-0.11
-0.34
-0.37
-0.18
0.16
0.46
0.52
0.29
-0.21
-0.74
-1.00
-0.78
-0.09
0.84
1.55
1.63
0.90
-0.45
-1.84
-2.57
-2.07
-0.35
2.04
4.06
4.70
3.47
0.72
-2.38
-4.32
-3.88
-0.87
3.69
7.91
9.86
8.42
4.04
-1.37
-5.37
-5.73
-1.81
5.33
13.22
18.90
19.88
14.94
4.91
-7.20
-16.49
-17.83
-7.34
15.37
46.17
76.82
97.33
99.19
78.22
37.66
-13.34
-62.30
-97.57
-112.18
-105.74
-83.97
-55.25
-27.68
-6.27
7.73
15.76
19.96
21.33
19.83
15.29
8.70
2.36
-0.71
1.45
8.49
17.81
25.74
29.39
27.73
22.30
16.25
12.92
14.28
20.19
28.58
36.39
41.13
41.75
39.08
35.16
32.27
31.98
34.87
40.74
48.82
57.69
64.91
67.06
60.61
43.48
16.58
-15.81
-47.29
-71.85
-86.16
-90.74
-88.97
-85.20
-82.54
-82.03
-82.91
-83.94
-84.34
-84.39
-84.73
-85.87
-87.82
-90.03
-91.94
-93.66
-96.26
-101.10
-108.45
-116.34
-120.49
-115.91
-99.47
-71.94
-38.31
-5.98
18.45
31.90
35.74
34.50
33.42
36.19
43.99
55.98
70.38
85.45
99.95
112.83
123.26
130.60
134.70
135.96
135.88
136.62
140.14
146.50
153.19
155.43
148.03
128.24
97.58
62.03
29.49
6.36
-5.57
-9.31
-10.71
-15.35
-25.85
-41.71
-60.17
-78.59
-94.70
-109.06
-122.81
-136.54
-150.01
-162.40
-173.30
-182.68
-190.17
-194.11
-191.61
-179.16
-154.83
-121.12
-81.44
-42.17
-9.24
14.12
28.34
36.13
40.73
44.15
46.87
48.72
49.38
49.50
50.27
52.52
55.98
59.45
61.39
60.64
57.11
51.40
44.78
38.65
33.94
30.69
28.20
25.25
21.28
16.31
10.90
6.42
4.45
6.34
12.61
22.77
35.47
49.65
64.32
78.79
93.14
107.96
124.36
144.11
169.83
200.49
236.41
276.61
317.56
353.18
376.21
380.43
362.94
325.09
271.93
210.83
148.43
89.17
35.07
-13.53
-56.94
-95.21
-128.13
-155.32
-176.27
-191.10
-200.77
-206.96
-211.97
-218.52
-229.57
-248.59
-278.86
-321.83
-375.68
-434.27
-487.89
-526.12
-541.63
-532.88
-504.72
-466.01
-425.51
-388.81
-357.05
-328.34
-300.44
-272.70
-246.25
-223.09
-204.27
-188.62
-172.87
-152.92
-125.61
-90.33
-49.41
-6.12
35.65
72.97
104.92
132.93
160.06
189.99
225.60
268.17
318.26
372.67
423.63
459.65
469.28
445.87
391.00
315.02
234.16
167.49
127.57
116.59
126.82
146.43
165.61
179.56
188.09
193.63
202.57
219.31
245.17
277.39
311.06
340.80
361.08
367.34
336.34
259.22
145.44
19.55
-94.78
-183.67
-241.35
-266.16
-259.19
-225.82
-171.21
-106.71
-45.13
2.20
30.39
42.26
44.50
44.42
48.09
62.83
86.67
118.22
152.77
183.55
203.86
207.59
190.77
152.50
96.68
28.41
-45.72
-119.09
-184.66
-229.01
-241.26
-220.82
-178.06
-128.11
-86.08
-62.51
-63.05
-87.49
-129.58
-178.74
-221.73
-245.72
-242.41
-212.13
-163.30
-109.28
-62.15
-28.22
-8.20
1.12
3.90
3.02
-0.50
-5.91
-11.94
-16.37
-16.66
-12.10
-4.22
4.09
9.92
11.37
8.68
3.74
-0.75
-2.43
-0.58
3.89
8.98
12.67
13.71
12.08
8.84
5.60
3.78
3.90
5.56
7.74
9.35
9.68
8.67
6.77
4.74
3.23
2.60
2.82
3.56
4.41
5.06
5.35
5.25
4.82
4.05
3.07
2.09
1.36
1.13
1.51
2.41
3.41
3.97
3.59
2.16
0.05
-2.04
-3.31
-3.28
-2.09
-0.49
0.40
-0.40
-3.17
-7.30
-11.55
-14.52
-15.35
-14.20
-12.27
-11.18
-12.43
-16.62
-23.24
-31.07
-38.59
-44.26
-46.79
-45.33
-40.03
-32.80
-27.42
-28.45
-39.46
-60.85
-88.67
-115.41
-132.73
-134.31
-119.11
-91.02
-56.52
-21.82
9.22
35.22
56.22
72.30
82.95
87.51
86.19
80.50
72.82
65.71
60.86
58.56
57.88
57.23
55.07
50.80
44.90
38.57
33.16
29.55
27.80
27.23
26.79
25.54
23.09
19.69
15.99
12.74
10.43
9.10
8.46
8.03
7.35
6.26
4.82
3.27
1.88
0.83
0.13
-0.28
-0.53
-0.74
-0.94
-1.17
-1.46
-1.81
-2.26
-2.80
-3.31
-3.65
-3.66
-3.28
-2.61
-1.91
-1.49
-1.58
-2.18
-3.01
-3.64
-3.63
-2.79
-1.32
0.23
1.18
1.06
-0.13
-1.86
-3.25
-3.45
-2.11
0.41
3.17
4.96
4.98
3.23
0.56
-1.61
-2.09
-0.27
3.56
8.37
12.85
15.89
16.54
14.01
8.01
-0.57
-9.34
-14.52
-12.43
-1.38
16.80
37.04
52.75
58.97
54.45
41.85
25.89
10.96
-0.69
-9.13
-15.55
-20.77
-24.53
-26.00
-24.66
-21.02
-16.50
-12.74
-11.07
-11.63
-13.62
-15.55
-16.18
-14.96
-12.21
-8.92
-6.23
-4.94
-5.13
-6.24
-7.36
-7.72
-6.98
-5.33
-3.36
-1.73
-0.86
-0.78
-1.15
-1.51
-1.48
-0.94
-0.05
0.88
1.55
1.82
1.73
1.50
1.35
1.39
1.63
1.94
2.17
2.23
2.14
2.03
2.07
2.34
2.80
3.27
3.48
3.25
2.56
1.64
0.86
0.58
0.99
1.90
2.83
3.17
2.42
0.55
-1.96
-4.26
-5.56
-5.46
-4.27
-2.94
-2.66
-4.35
-8.13
-13.15
-17.97
-21.20
-22.13
-21.21
-19.90
-19.91
-22.70
-28.62
-36.89
-46.07
-54.51
-60.62
-63.00
-60.84
-54.45
-46.19
-40.40
-41.96
-54.22
-76.74
-104.37
-128.66
-141.14
-136.32
-114.53
-80.86
-42.40
-5.16
27.50
54.65
76.44
92.74
102.84
106.14
103.19
95.93
87.04
79.18
73.87
71.10
69.67
67.87
64.27
58.51
51.33
44.09
38.16
34.28
32.30
31.35
30.29
28.24
24.94
20.79
16.58
13.08
10.72
9.43
8.79
8.22
7.26
5.78
3.93
2.05
0.48
-0.61
-1.22
-1.51
-1.70
-1.96
-2.36
-2.87
-3.40
-3.86
-4.20
-4.43
-4.53
-4.56
-4.53
-4.44
-4.34
-4.21
-4.06
-3.92
-3.77
-3.63
-3.48
-3.34
-3.19
-3.03
-2.87
-2.70
-2.52
-2.33
-2.14
-1.94
-1.76
-1.57
-1.38
-1.18
-0.97
-0.76
-0.56
-0.41
-0.34
-0.33
-0.35
-0.33
-0.24
-0.03
0.26
0.60
0.93
1.17
1.35
1.49
1.68
2.02
2.57
3.32
4.18
5.01
5.67
6.11
6.44
6.84
7.54
8.68
10.21
11.88
13.38
14.38
14.83
14.98
15.29
16.26
18.16
20.89
23.91
26.54
28.14
28.59
28.42
28.60
30.04
33.23
37.75
42.28
45.03
44.24
39.01
29.59
17.32
3.85
-9.42
-21.94
-34.16
-46.62
-60.49
-76.50
-94.72
-114.14
-132.22
-144.85
-147.43
-136.97
-113.02
-79.72
-44.16
-14.05
5.44
13.50
13.30
9.89
7.85
9.87
15.95
24.29
32.20
36.76
35.65
28.14
15.74
2.21
-7.52
-10.03
-4.35
7.64
22.68
37.83
51.68
64.08
75.08
83.96
89.06
89.17
84.38
76.37
67.70
60.27
54.65
49.63
42.85
31.88
15.63
-5.17
-28.19
-50.53
-69.34
-83.69
-93.88
-101.11
-106.80
-112.15
-118.13
-125.23
-133.12
-140.08
-143.34
-138.48
-122.30
-94.47
-58.42
-20.56
12.13
34.83
46.51
49.59
48.43
46.97
47.70
51.67
59.51
72.20
90.69
114.22
139.20
159.54
168.02
161.06
140.18
111.81
84.59
65.41
56.30
53.90
52.23
45.74
31.98
12.11
-10.66
-33.20
-53.41
-71.53
-88.57
-105.17
-121.03
-135.49
-147.85
-157.97
-165.40
-168.56
-164.85
-151.35
-126.85
-93.37
-56.45
-22.44
2.88
16.87
20.73
17.90
12.23
6.17
0.45
-5.01
-10.08
-14.07
-16.03
-15.47
-12.95
-9.45
-5.96
-2.95
0.25
5.05
12.83
24.23
38.77
54.76
69.82
81.28
87.12
86.35
79.19
66.72
50.36
31.60
11.25
-8.96
-27.89
-44.50
-57.88
-67.47
-72.81
-73.93
-71.29
-65.53
-57.38
-47.63
-36.73
-24.98
-12.60
0.32
13.22
25.47
36.48
45.94
53.65
59.72
64.30
67.43
69.47
70.33
70.11
69.43
69.48
71.55
76.82
85.61
97.03
109.60
120.46
126.94
127.50
122.04
111.64
98.08
82.71
63.29
41.51
18.44
-4.71
-25.97
-42.08
-50.71
-49.87
-38.16
-15.38
18.25
60.33
106.94
152.37
189.63
212.45
217.89
208.11
189.80
171.83
159.74
155.11
155.95
157.62
156.93
153.16
147.90
143.40
140.93
137.42
129.38
114.98
94.49
69.43
40.97
9.02
-27.77
-70.47
-122.12
-182.57
-247.57
-311.03
-367.74
-415.39
-454.71
-488.86
-521.64
-560.37
-607.89
-660.29
-707.86
-738.60
-742.50
-714.88
-658.42
-559.05
-424.70
-278.86
-148.40
-49.67
15.45
53.73
73.58
78.32
73.38
60.16
42.79
28.41
24.76
37.01
66.52
112.69
171.79
236.93
296.83
343.18
372.99
388.09
392.36
389.36
381.21
368.62
352.11
330.39
303.99
275.39
248.08
224.91
207.04
194.00
184.52
177.89
172.84
168.31
162.39
151.80
132.63
102.47
62.59
18.26
-22.73
-53.82
-71.76
-77.60
-75.22
-68.82
-60.80
-51.42
-40.05
-26.38
-11.43
2.96
14.88
23.62
29.19
32.29
33.54
32.70
28.78
20.39
6.62
-12.75
-36.40
-62.18
-87.35
-109.47
-126.98
-139.20
-147.73
-152.50
-153.78
-151.70
-145.63
-134.65
-117.99
-95.70
-68.80
-39.54
-10.76
14.40
33.12
43.98
47.07
43.73
35.70
24.73
11.85
-2.54
-17.47
-33.57
-51.47
-71.78
-94.43
-117.67
-137.88
-149.72
-148.21
-131.17
-101.39
-65.83
-33.27
-10.90
-1.19
-2.29
-8.31
-13.55
-13.82
-7.25
6.81
27.32
51.53
74.58
89.55
91.00
77.57
53.43
26.46
5.40
-4.38
-2.60
6.61
16.85
22.71
20.13
7.37
-15.19
-44.49
-75.03
-98.82
-107.58
-95.42
-61.36
-10.83
44.63
90.64
117.90
122.38
107.82
83.72
60.99
47.45
44.91
49.99
56.77
60.21
57.25
48.04
34.34
18.36
2.26
-12.12
-22.71
-28.21
-28.73
-29.94
-36.28
-51.29
-75.65
-105.08
-136.10
-163.94
-184.24
-193.60
-190.55
-174.40
-146.12
-107.61
-61.02
-8.09
51.60
116.74
187.40
263.73
345.24
428.53
507.00
572.15
616.05
634.85
629.93
607.72
576.69
544.27
514.23
486.49
458.69
427.92
392.65
352.77
309.36
263.65
216.69
169.12
121.55
74.66
28.83
-15.61
-58.72
-100.43
-140.69
-179.35
-216.06
-250.45
-282.06
-310.62
-336.45
-360.89
-385.88
-413.07
-442.08
-469.12
-486.90
-486.32
-459.49
-402.87
-319.08
-216.36
-106.29
-0.47
92.14
166.30
220.28
254.66
271.25
272.46
261.33
241.49
217.02
191.99
169.74
152.39
140.42
132.80
127.72
123.34
118.30
112.01
104.25
94.62
82.20
65.69
44.14
18.17
-9.72
-35.74
-56.28
-69.53
-76.31
-79.13
-80.75
-82.47
-83.33
-80.94
-73.02
-58.68
-38.96
-16.21
6.93
28.03
45.03
56.09
59.43
53.81
39.16
16.79
-10.89
-40.83
-70.51
-98.68
-125.50
-152.58
-182.39
-217.15
-257.74
-302.47
-346.67
-383.70
-406.94
-412.19
-399.34
-372.30
-337.32
-300.73
-266.78
-237.06
-210.97
-187.15
-164.86
-145.07
-130.41
-124.25
-128.91
-144.03
-165.83
-187.91
-203.34
-207.40
-199.27
-182.19
-161.92
-144.75
-135.71
-137.70
-151.23
-174.34
-202.34
-228.04
-243.42
-242.17
-222.25
-187.14
-144.31
-102.32
-67.64
-42.97
-27.66
-19.55
-16.88
-18.79
-24.65
-32.70
-39.79
-42.53
-39.21
-30.97
-21.40
-14.27
-11.02
-9.62
-5.58
5.73
26.42
55.29
88.91
123.76
157.89
191.22
224.23
256.53
286.45
311.77
331.30
345.76
357.76
370.27
385.18
402.39
420.21
436.17
448.69
457.62
463.01
463.75
456.75
438.04
404.58
356.43
297.00
233.34
174.22
127.52
97.79
85.59
88.31
101.78
121.75
143.09
162.01
176.23
184.61
186.13
179.73
164.61
140.72
108.64
65.57
11.03
-51.04
-113.21
-168.10
-211.26
-242.41
-264.94
-284.36
-314.58
-363.77
-429.28
-499.69
-562.86
-611.88
-646.06
-668.89
-684.88
-711.06
-756.76
-818.20
-882.38
-937.57
-978.92
-1006.51
-1021.36
-1022.74
-1027.68
-1047.95
-1083.78
-1125.75
-1163.96
-1192.19
-1206.09
-1202.22
-1074.78
-787.90
-393.54
1.60
314.87
522.32
640.99
700.74
720.36
721.23
696.76
642.63
567.74
492.03
433.35
399.53
391.71
403.42
427.60
444.21
441.64
422.23
398.69
383.20
380.82
389.94
405.13
421.61
426.85
414.08
385.66
350.72
318.17
292.42
273.67
259.49
247.73
232.29
209.97
182.10
153.28
127.96
108.20
93.81
83.19
74.93
66.30
56.14
45.33
36.25
31.40
32.25
39.07
51.08
67.15
85.87
105.96
126.34
146.23
165.37
184.13
203.50
224.41
246.93
269.17
286.85
294.38
286.75
261.89
221.76
172.02
119.66
70.74
28.84
-4.77
-29.92
-46.63
-54.81
-55.21
-50.15
-43.52
-39.44
-40.12
-44.90
-50.99
-55.42
-56.90
-56.36
-55.78
-56.37
-57.64
-57.80
-55.40
-50.98
-47.53
-49.27
-59.52
-78.77
-104.05
-129.78
-149.65
-158.34
-152.53
-131.01
-94.09
-43.56
17.12
82.35
144.43
195.36
228.96
242.75
238.26
219.73
192.11
159.60
125.39
92.02
61.78
36.39
16.06
-0.64
-15.70
-29.92
-41.35
-46.36
-42.34
-30.36
-15.67
-5.27
-3.85
-10.94
-21.31
-28.14
-27.05
-18.50
-6.96
2.12
5.72
4.75
2.80
3.38
7.49
13.16
16.88
15.88
9.58
-0.47
-11.93
-23.38
-35.23
-49.02
-65.86
-84.64
-101.80
-112.63
-113.49
-103.97
-87.35
-68.98
-53.42
-42.23
-33.63
-24.44
-12.64
1.11
13.95
22.95
27.28
28.87
30.98
35.84
42.72
48.01
47.36
38.36
22.35
3.84
-11.78
-21.27
-25.20
-27.56
-33.11
-44.61
-61.00
-77.69
-89.04
-90.84
-81.97
-64.04
-39.73
-10.82
22.45
60.67
103.93
150.63
197.74
241.68
279.90
311.60
337.92
361.17
384.05
408.95
437.07
467.56
496.77
518.45
525.15
510.57
472.21
412.89
340.25
264.31
194.34
136.25
91.80
59.52
36.15
18.41
3.66
-10.08
-24.60
-41.53
-62.29
-87.84
-118.24
-152.98
-191.30
-232.81
-277.69
-326.28
-377.94
-429.87
-476.74
-511.35
-526.72
-518.65
-487.75
-439.51
-382.83
-327.14
-279.65
-243.69
-218.72
-201.62
-188.57
-176.38
-162.84
-146.37
-125.45
-98.60
-64.97
-24.91
19.40
64.54
106.88
144.06
175.78
203.76
230.79
259.11
289.54
321.12
351.76
379.45
403.43
424.62
445.10
466.79
489.51
510.33
524.31
526.38
513.72
487.05
450.02
407.48
363.42
319.80
277.11
235.56
196.39
162.21
135.82
118.84
110.71
108.96
110.08
111.02
109.99
106.47
100.95
93.85
84.79
72.42
54.71
29.88
-2.75
-42.26
-86.25
-131.80
-176.39
-218.89
-259.60
-299.82
-341.22
-385.18
-432.89
-485.01
-541.15
-598.67
-652.05
-692.96
-712.52
-704.05
-665.51
-600.28
-515.50
-419.07
-317.30
-214.28
-113.24
-18.43
64.37
129.41
173.52
198.17
208.99
213.13
215.74
218.04
217.71
211.12
196.47
175.06
150.71
127.87
109.76
97.97
92.81
93.90
100.00
108.47
114.91
114.34
102.89
79.61
47.07
10.15
-26.23
-58.83
-86.69
-110.20
-129.89
-145.64
-157.01
-164.10
-168.14
-171.28
-175.56
-181.97
-189.93
-197.58
-202.55
-203.13
-198.86
-190.74
-180.86
-171.41
-163.78
-157.99
-152.85
-146.55
-137.83
-126.66
-114.34
-103.08
-94.98
-91.17
-91.44
-94.28
-97.47
-98.85
-96.80
-90.62
-80.44
-67.07
-51.66
-35.52
-19.77
-5.14
8.09
20.12
31.43
42.33
52.63
61.44
67.37
69.20
66.60
60.46
52.64
45.29
39.84
36.55
34.57
32.59
29.66
25.58
20.74
15.71
10.61
5.05
-1.60
-9.58
-18.15
-25.84
-30.83
-31.82
-28.53
-21.73
-12.86
-3.20
6.56
16.56
27.25
39.01
51.72
64.79
77.37
88.75
98.52
106.58
113.03
117.96
121.43
123.36
123.61
122.01
118.42
112.81
105.17
95.64
84.46
72.06
58.98
45.74
32.93
20.94
10.01
0.14
-8.78
-16.94
-24.50
-31.64
-38.59
-45.58
-52.83
-60.40
-68.08
-75.43
-81.98
-87.48
-91.94
-95.74
-99.32
-103.01
-106.98
-111.09
-115.10
-118.88
-122.38
-125.46
-127.87
-129.01
-128.06
-124.25
-117.04
-106.38
-92.62
-76.37
-58.14
-38.36
-17.34
4.69
27.25
49.71
71.27
91.23
109.17
125.00
138.78
150.61
160.54
168.34
173.67
176.17
175.68
172.49
167.21
160.60
153.44
146.19
138.97
131.65
124.02
115.94
107.52
98.95
90.49
82.31
74.33
66.14
57.11
46.62
34.23
20.07
4.77
-10.67
-25.24
-38.35
-49.99
-60.60
-70.83
-81.18
-91.73
-102.14
-111.67
-119.45
-124.61
-126.53
-124.87
-119.79
-111.76
-101.54
-89.89
-77.42
-64.50
-51.31
-37.99
-24.81
-12.26
-0.98
8.42
15.48
20.03
22.17
22.23
20.72
18.28
15.65
13.68
13.04
14.06
16.59
20.01
23.40
25.92
27.00
26.50
24.52
21.36
17.31
12.68
7.82
3.13
-1.07
-4.68
-7.84
-10.95
-14.41
-18.46
-23.05
-27.88
-32.63
-37.00
-40.92
-44.42
-47.56
-50.55
-53.54
-56.77
-60.51
-64.86
-69.57
-73.87
-76.54
-76.25
-71.98
-63.34
-50.85
-35.73
-19.51
-3.47
11.70
25.85
39.13
51.56
62.72
71.84
78.11
81.13
81.14
79.00
75.78
72.41
69.29
66.52
63.99
61.68
59.74
58.19
56.88
55.34
53.10
49.82
45.66
41.08
36.67
32.74
29.12
25.31
20.79
15.39
9.37
3.34
-2.04
-6.40
-9.62
-11.91
-13.51
-14.63
-15.47
-16.24
-17.27
-18.97
-21.72
-25.71
-30.94
-37.11
-43.72
-49.98
-54.98
-57.69
-57.22
-53.05
-45.12
-34.03
-20.74
-6.38
8.03
21.72
34.13
44.86
53.56
59.93
63.80
65.23
64.56
62.39
59.50
56.48
53.71
51.25
48.83
46.05
42.64
38.57
34.06
29.52
25.29
21.52
18.14
14.93
11.65
8.17
4.53
0.77
-2.94
-6.48
-9.63
-12.23
-14.08
-15.22
-15.86
-16.40
-17.31
-18.99
-21.66
-25.40
-30.08
-35.42
-41.02
-46.39
-51.13
-55.08
-58.30
-61.09
-63.62
-65.75
-66.95
-66.41
-63.44
-57.61
-49.11
-38.56
-26.86
-14.99
-3.75
6.25
14.56
20.91
25.29
27.75
28.63
28.37
27.43
26.24
25.06
23.99
22.99
21.99
20.91
19.79
18.76
17.88
17.23
16.70
16.10
15.19
13.80
11.81
9.33
6.51
3.51
0.42
-2.78
-6.22
-9.98
-14.13
-18.52
-22.75
-26.33
-28.80
-29.83
-29.37
-27.74
-25.46
-23.19
-21.52
-20.81
-21.26
-22.94
-25.78
-29.62
-34.17
-38.88
-42.90
-45.25
-45.03
-41.77
-35.62
-27.16
-17.29
-6.94
3.15
12.46
20.62
27.32
32.22
35.09
35.94
35.10
33.23
31.19
29.80
29.55
30.54
32.47
34.86
37.07
38.61
39.22
38.85
37.62
35.76
33.56
31.28
29.09
27.01
24.90
22.65
20.15
17.29
14.15
10.83
7.47
4.14
0.79
-2.65
-6.26
-10.02
-13.94
-17.94
-21.93
-25.88
-29.84
-33.85
-37.93
-42.09
-46.27
-50.35
-54.17
-57.41
-59.63
-60.29
-58.79
-54.68
-47.76
-38.27
-26.88
-14.50
-2.12
9.42
19.62
28.15
34.84
39.59
42.33
43.13
42.21
40.08
37.29
34.46
32.01
30.24
29.18
28.79
28.84
29.04
29.13
28.88
28.18
27.01
25.41
23.45
21.25
18.90
16.50
14.12
11.74
9.28
6.58
3.54
0.12
-3.52
-7.20
-10.78
-14.25
-17.77
-21.50
-25.50
-29.69
-33.75
-37.37
-40.32
-42.75
-45.06
-47.76
-51.18
-55.19
-59.16
-62.11
-63.06
-61.22
-56.34
-48.57
-38.47
-26.78
-14.30
-1.88
9.70
19.77
27.82
33.60
37.13
38.61
38.39
36.87
34.48
31.73
29.11
26.99
25.64
25.04
25.03
25.34
25.73
26.01
26.16
26.20
26.15
26.00
25.63
24.93
23.71
21.81
19.07
15.54
11.40
7.07
2.98
-0.55
-3.45
-6.02
-8.73
-11.94
-15.84
-20.19
-24.48
-28.21
-31.18
-33.49
-35.58
-37.92
-40.81
-44.28
-48.16
-52.08
-55.59
-58.25
-59.53
-58.83
-55.69
-49.89
-41.63
-31.54
-20.44
-9.19
1.57
11.43
20.17
27.63
33.58
37.79
40.13
40.76
39.97
38.29
36.21
34.01
31.84
29.77
27.82
26.15
24.86
23.95
23.24
22.41
21.11
19.15
16.55
13.41
9.94
6.33
2.80
-0.48
-3.37
-5.82
-7.95
-10.05
-12.49
-15.52
-19.19
-23.20
-27.11
-30.46
-32.99
-34.68
-35.77
-36.59
-37.48
-38.76
-40.56
-42.82
-45.28
-47.44
-48.60
-48.14
-45.53
-40.44
-32.87
-23.02
-11.30
1.77
15.49
29.13
41.97
53.41
62.95
70.18
74.83
76.69
75.69
72.02
66.11
58.71
50.74
43.10
36.46
31.24
27.50
25.09
23.61
22.64
21.72
20.55
19.01
17.12
15.00
12.69
10.15
7.25
4.04
0.69
-2.50
-5.18
-7.30
-9.04
-10.90
-13.30
-16.49
-20.33
-24.41
-28.23
-31.51
-34.26
-36.73
-39.16
-41.66
-44.02
-45.90
-46.97
-47.08
-46.38
-45.13
-43.48
-41.29
-38.07
-33.13
-25.95
-16.45
-5.12
7.10
19.10
29.95
39.10
46.36
51.71
55.13
56.54
55.85
53.23
49.24
44.76
40.75
38.02
36.96
37.40
38.87
40.64
42.09
42.84
42.82
42.04
40.78
39.28
37.73
36.32
34.97
33.42
31.27
28.14
23.80
18.54
12.89
7.67
3.66
1.36
0.75
1.40
2.55
3.37
3.17
1.45
-2.03
-7.22
-13.74
-21.04
-28.45
-35.54
-42.08
-48.19
-54.11
-60.04
-65.85
-71.27
-75.98
-79.81
-82.94
-85.62
-88.14
-90.60
-92.92
-94.79
-95.88
-95.66
-93.48
-88.78
-81.07
-70.31
-57.02
-42.20
-27.02
-12.64
0.10
10.80
19.31
25.62
29.73
31.66
31.52
29.63
26.54
22.91
19.43
16.58
14.66
13.67
13.55
14.13
15.25
16.70
18.19
19.48
20.30
20.58
20.40
20.04
19.78
19.75
19.89
19.96
19.66
18.72
16.90
14.12
10.39
5.89
0.85
-4.35
-9.42
-14.16
-18.64
-23.07
-27.72
-32.71
-37.98
-43.28
-48.31
-52.84
-56.73
-59.80
-61.77
-62.14
-60.31
-55.69
-48.00
-37.32
-24.17
-9.44
5.89
20.86
34.70
46.72
56.41
63.30
67.19
68.09
66.40
62.90
58.52
54.16
50.40
47.55
45.54
44.29
43.65
43.42
43.39
43.21
42.51
41.01
38.60
35.37
31.57
27.46
23.18
18.78
14.24
9.58
4.92
0.50
-3.43
-6.76
-9.50
-11.77
-13.71
-15.45
-16.99
-18.36
-19.59
-20.87
-22.45
-24.60
-27.43
-30.81
-34.49
-38.04
-41.15
-43.63
-45.33
-46.09
-45.55
-43.21
-38.56
-31.33
-21.68
-10.23
2.07
14.32
25.75
35.92
44.58
51.54
56.68
59.93
61.43
61.54
60.75
59.53
58.14
56.52
54.42
51.63
48.11
44.11
40.07
36.42
33.34
30.78
28.47
26.09
23.51
20.68
17.69
14.58
11.31
7.81
4.11
0.43
-2.91
-5.53
-7.29
-8.34
-9.07
-10.06
-11.79
-14.54
-18.31
-22.86
-27.76
-32.62
-37.20
-41.44
-45.51
-49.65
-53.99
-58.48
-62.85
-66.72
-69.67
-71.18
-70.72
-67.70
-61.62
-52.25
-39.96
-25.61
-10.48
4.08
16.96
27.60
35.76
41.46
44.82
45.91
44.92
42.27
38.64
34.80
31.40
28.77
26.88
25.49
24.33
23.20
22.00
20.70
19.21
17.43
15.29
12.85
10.19
7.51
4.88
2.33
-0.25
-2.93
-5.81
-8.93
-12.26
-15.83
-19.57
-23.46
-27.35
-31.16
-34.76
-38.09
-41.09
-43.79
-46.22
-48.41
-50.44
-52.48
-54.70
-57.26
-60.14
-63.01
-65.22
-65.91
-64.17
-59.48
-51.77
-41.46
-29.41
-16.60
-3.94
7.90
18.45
27.40
34.43
39.29
41.84
42.17
40.68
37.98
34.77
31.59
28.71
26.04
23.46
20.80
18.04
15.33
12.86
10.76
8.98
7.38
5.73
3.88
1.81
-0.40
-2.50
-4.21
-5.33
-5.80
-5.70
-5.17
-4.35
-3.48
-2.86
-2.83
-3.69
-5.57
-8.27
-11.37
-14.37
-16.95
-19.14
-21.41
-24.29
-28.16
-32.89
-38.02
-42.90
-47.01
-50.01
-51.73
-51.93
-50.20
-46.00
-38.88
-28.72
-15.98
-1.54
13.43
27.76
40.57
51.25
59.49
65.21
68.38
69.12
67.73
64.74
60.83
56.85
53.57
51.43
50.54
50.62
51.22
51.72
51.66
50.78
49.05
46.64
43.79
40.69
37.38
33.89
30.12
26.10
21.91
17.72
13.66
9.80
6.11
2.40
-1.43
-5.55
-9.95
-14.52
-19.04
-23.26
-27.04
-30.32
-33.31
-36.26
-39.41
-42.95
-46.94
-51.36
-56.00
-60.52
-64.35
-66.76
-66.96
-64.30
-58.44
-49.50
-38.10
-25.22
-12.00
0.45
11.29
20.15
26.89
31.68
34.73
36.18
36.13
34.72
32.21
29.00
25.62
22.47
19.74
17.48
15.61
14.07
12.89
12.10
11.68
11.49
11.29
10.77
9.77
8.28
6.44
4.45
2.41
0.31
-1.97
-4.55
-7.51
-10.87
-14.70
-19.05
-24.00
-29.50
-35.18
-40.47
-44.69
-47.41
-48.53
-48.46
-47.76
-46.97
-46.32
-45.80
-45.38
-45.05
-44.92
-44.95
-44.89
-44.09
-41.79
-37.33
-30.46
-21.57
-11.37
-0.67
9.86
19.87
29.28
37.92
45.51
51.63
55.77
57.70
57.45
55.38
52.03
47.91
43.46
38.96
34.67
30.75
27.36
24.42
21.70
18.85
15.53
11.56
7.02
2.11
-2.91
-7.68
-12.00
-15.60
-18.19
-19.46
-19.12
-16.99
-13.17
-8.15
-2.56
2.76
7.01
9.74
10.93
10.98
10.62
10.49
10.86
11.69
12.54
13.01
12.92
12.42
11.74
11.08
10.43
9.63
8.71
7.96
8.05
9.76
13.52
19.27
26.34
33.80
40.73
46.56
51.08
54.35
56.50
57.53
57.41
56.03
53.48
49.93
45.72
41.16
36.56
32.10
27.93
24.22
21.16
18.89
17.47
16.71
16.16
15.30
13.60
10.81
7.04
2.62
-1.97
-6.29
-10.03
-13.12
-15.55
-17.53
-19.31
-21.27
-23.69
-26.80
-30.52
-34.62
-38.74
-42.52
-45.77
-48.34
-50.26
-51.56
-52.35
-52.86
-53.39
-54.23
-55.50
-57.05
-58.25
-58.29
-56.28
-51.58
-44.23
-34.86
-24.57
-14.45
-5.37
2.26
8.32
12.86
16.04
17.90
18.62
18.51
17.98
17.44
17.21
17.34
17.76
18.48
19.54
21.18
23.61
26.87
30.79
35.00
38.88
41.85
43.47
43.45
41.85
38.85
34.61
29.37
23.35
16.82
10.17
3.88
-1.66
-6.23
-9.88
-13.01
-16.06
-19.47
-23.41
-27.69
-31.89
-35.68
-38.97
-41.99
-45.28
-49.14
-53.58
-58.14
-61.91
-63.95
-63.55
-60.35
-54.43
-46.25
-36.43
-25.71
-14.76
-4.08
5.94
15.18
23.67
31.44
38.51
44.81
50.18
54.38
57.14
58.08
56.84
53.20
47.19
39.35
30.70
22.59
16.39
13.10
12.88
15.17
18.90
22.89
26.29
28.80
30.43
31.36
31.67
31.30
30.13
28.16
25.51
22.32
18.68
14.59
10.00
4.97
-0.41
-5.96
-11.53
-16.94
-22.02
-26.53
-30.35
-33.40
-35.88
-38.20
-40.81
-44.09
-48.03
-52.26
-56.16
-59.04
-60.27
-59.40
-56.23
-50.80
-43.43
-34.62
-24.96
-15.00
-5.21
4.12
12.78
20.44
26.83
31.58
34.43
35.41
34.83
33.26
31.25
29.36
27.83
26.84
26.30
26.10
26.08
25.96
25.57
24.65
23.12
21.04
18.68
16.29
14.05
12.06
10.12
8.04
5.58
2.73
-0.38
-3.44
-6.15
-8.41
-10.17
-11.70
-13.24
-15.08
-17.34
-20.05
-23.19
-26.75
-30.77
-35.18
-39.92
-44.66
-49.10
-52.92
-55.83
-57.77
-58.72
-58.69
-57.44
-54.66
-49.98
-43.16
-34.32
-23.86
-12.44
-0.87
10.04
19.66
27.58
33.63
37.91
40.61
41.99
42.33
41.84
40.72
39.23
37.64
36.18
34.93
33.78
32.58
31.27
29.94
28.84
28.22
28.07
28.12
27.90
26.92
24.94
22.08
18.72
15.30
12.21
9.54
7.15
4.87
2.53
0.00
-2.69
-5.55
-8.59
-11.86
-15.48
-19.37
-23.37
-27.18
-30.58
-33.43
-35.86
-38.03
-40.23
-42.72
-45.58
-48.77
-52.15
-55.43
-58.18
-59.87
-59.85
-57.60
-52.82
-45.39
-35.64
-24.22
-12.08
-0.21
10.36
19.03
25.52
29.82
32.32
33.37
33.29
32.36
30.82
28.89
26.95
25.35
24.34
24.13
24.68
25.85
27.41
29.17
30.84
32.28
33.19
33.39
32.73
31.14
28.74
25.77
22.40
18.76
15.01
11.33
7.91
4.99
2.54
0.41
-1.73
-4.28
-7.46
-11.23
-15.33
-19.46
-23.36
-27.03
-30.56
-34.09
-37.74
-41.59
-45.58
-49.58
-53.32
-56.37
-58.25
-58.47
-56.60
-52.43
-45.95
-37.37
-27.09
-15.78
-4.15
6.93
16.74
24.79
30.84
34.92
37.20
37.96
37.49
36.11
34.15
31.96
29.88
28.17
27.02
26.45
26.39
26.66
27.02
27.23
26.99
26.20
24.80
22.95
20.94
19.08
17.56
16.41
15.38
14.10
12.30
9.87
6.93
3.80
0.73
-2.17
-4.92
-7.63
-10.41
-13.31
-16.27
-19.28
-22.32
-25.36
-28.40
-31.42
-34.41
-37.44
-40.55
-43.70
-46.78
-49.42
-51.18
-51.47
-49.74
-45.63
-39.02
-30.15
-19.53
-7.87
4.09
15.67
26.35
35.88
44.02
50.63
55.52
58.50
59.47
58.52
55.89
51.96
47.25
42.17
37.12
32.43
28.40
25.23
23.04
21.69
20.72
19.54
17.47
14.08
9.31
3.49
-2.79
-8.88
-14.27
-18.74
-22.30
-25.05
-26.98
-27.97
-27.82
-26.28
-23.25
-18.74
-12.94
-6.18
1.09
8.23
14.57
19.39
22.15
22.51
20.53
16.50
10.99
4.58
-2.33
-9.55
-17.29
-25.90
-35.68
-46.37
-57.04
-66.21
-72.11
-73.41
-69.51
-60.63
-47.84
-32.58
-16.42
-0.86
12.84
23.77
31.50
36.16
38.44
39.32
39.76
40.42
41.42
42.44
42.99
42.61
41.24
39.18
37.01
35.29
34.29
33.77
33.13
31.64
28.64
23.93
17.82
10.97
4.35
-1.15
-5.02
-7.02
-7.39
-6.65
-5.51
-4.62
-4.51
-5.45
-7.49
-10.62
-14.63
-19.22
-24.02
-28.54
-32.37
-35.39
-37.78
-40.10
-42.92
-46.48
-50.42
-53.82
-55.41
-54.16
-49.62
-42.11
-32.58
-22.22
-12.01
-2.63
5.61
12.72
18.62
23.18
26.30
27.95
28.33
27.96
27.33
26.79
26.43
25.96
25.03
23.42
21.19
18.74
16.65
15.41
15.21
15.93
17.17
18.48
19.41
19.67
19.08
17.75
15.85
13.65
11.42
9.27
7.24
5.38
3.81
2.79
2.59
3.33
4.78
6.51
7.86
8.32
7.74
6.16
3.72
0.44
-3.80
-9.13
-15.55
-22.83
-30.45
-37.79
-44.29
-49.63
-53.61
-56.09
-56.89
-55.73
-52.58
-47.45
-40.56
-32.30
-23.06
-13.26
-3.40
5.94
14.00
20.04
23.58
24.58
23.60
21.70
20.15
19.93
21.47
24.50
28.22
31.61
33.84
34.54
33.81
32.06
29.78
27.30
24.86
22.44
20.02
17.41
14.47
11.22
7.65
3.91
0.04
-3.85
-7.78
-11.83
-16.17
-20.96
-26.31
-32.35
-39.05
-46.37
-54.14
-62.05
-69.74
-76.80
-82.84
-87.48
-90.45
-91.44
-90.27
-86.80
-81.04
-73.15
-63.35
-52.01
-39.37
-25.81
-11.63
2.81
16.97
30.18
41.60
50.47
56.18
58.48
57.53
53.91
48.43
41.92
35.13
28.52
22.40
16.91
12.21
8.60
6.44
6.01
7.29
9.97
13.43
17.01
20.23
22.82
24.72
25.89
26.20
25.48
23.77
21.25
18.24
15.01
11.57
7.62
2.81
-3.08
-9.88
-17.02
-23.84
-29.81
-34.77
-38.90
-42.44
-45.60
-48.42
-50.83
-52.83
-54.44
-55.55
-55.78
-54.48
-50.74
-43.79
-33.31
-19.48
-3.11
14.61
32.44
49.15
63.63
75.06
82.92
87.11
87.99
86.23
82.66
78.13
73.39
68.96
65.20
62.18
59.88
58.09
56.64
55.32
54.03
52.58
50.81
48.56
45.62
41.93
37.56
32.62
27.23
21.44
15.27
8.59
1.46
-6.17
-14.20
-22.39
-30.41
-37.74
-43.86
-48.29
-50.91
-51.80
-51.37
-50.10
-48.39
-46.58
-44.92
-43.70
-43.15
-43.42
-44.28
-45.24
-45.53
-44.42
-41.53
-36.90
-31.00
-24.31
-17.21
-9.71
-1.66
6.97
16.03
24.95
33.03
39.67
44.55
47.74
49.68
50.91
51.99
53.38
55.29
57.75
60.63
63.66
66.53
68.99
71.01
72.69
74.21
75.65
76.90
77.68
77.58
76.27
73.60
69.71
64.83
59.19
52.94
46.06
38.45
30.02
20.73
10.78
0.39
-10.19
-20.73
-31.02
-40.87
-50.21
-59.20
-68.27
-77.89
-88.37
-99.56
-110.65
-120.41
-127.61
-131.30
-131.17
-127.40
-120.33
-110.28
-97.39
-81.79
-63.78
-44.25
-24.41
-5.68
10.62
23.59
32.86
38.57
41.33
42.00
41.39
40.22
38.86
37.35
35.50
32.94
29.45
25.01
19.83
14.23
8.58
3.20
-1.62
-5.62
-8.78
-11.26
-13.56
-16.31
-20.10
-25.12
-31.02
-37.19
-42.82
-47.43
-50.94
-53.68
-56.12
-58.65
-61.43
-64.47
-67.89
-71.77
-76.38
-81.78
-87.93
-94.36
-100.23
-104.29
-105.18
-101.75
-93.34
-80.26
-63.51
-44.69
-25.23
-6.07
12.47
30.58
48.34
65.54
81.32
94.57
104.32
110.13
112.37
111.91
109.88
107.15
104.18
100.79
96.42
90.44
82.50
72.79
61.96
50.92
40.39
30.85
22.27
14.48
7.39
1.04
-4.28
-8.52
-11.90
-15.11
-18.85
-23.60
-29.31
-35.34
-40.95
-45.48
-48.81
-51.17
-53.16
-55.25
-57.74
-60.61
-63.67
-66.85
-70.11
-73.63
-77.47
-81.49
-85.14
-87.48
-87.36
-83.70
-75.94
-64.13
-49.01
-31.72
-13.49
4.56
21.58
36.87
49.88
59.99
66.94
70.78
72.06
71.71
70.69
69.74
69.11
68.65
67.99
66.96
65.57
63.99
62.35
60.60
58.48
55.64
51.89
47.26
42.14
36.96
32.16
27.87
23.96
20.23
16.43
12.49
8.34
4.04
-0.47
-5.21
-10.17
-15.22
-20.12
-24.64
-28.74
-32.73
-37.06
-42.15
-47.99
-54.00
-59.04
-61.85
-61.40
-57.15
-49.25
-38.17
-24.51
-8.79
8.57
27.12
46.30
65.28
83.09
98.59
110.63
118.10
120.03
115.84
105.45
89.51
69.16
45.92
21.36
-3.10
-26.25
-47.02
-64.31
-76.94
-83.82
-84.23
-78.20
-66.96
-52.73
-38.42
-26.78
-19.58
-17.16
-18.61
-22.31
-26.60
-30.43
-33.41
-35.65
-37.47
-39.24
-41.50
-45.00
-50.56
-58.70
-69.24
-81.31
-93.59
-104.93
-114.79
-123.41
-131.33
-138.63
-144.43
-147.03
-144.42
-135.23
-119.25
-97.42
-71.35
-42.71
-12.83
17.40
47.23
76.01
103.10
127.99
150.47
170.53
188.11
202.82
213.72
219.60
219.38
212.78
200.55
184.55
167.26
150.99
137.16
125.95
116.64
108.18
99.92
91.71
83.85
76.45
68.96
60.06
47.88
30.62
7.14
-22.57
-57.04
-93.43
-127.78
-155.88
-174.17
-180.83
-176.36
-163.38
-145.61
-126.41
-107.60
-88.97
-68.96
-45.68
-18.16
13.01
45.84
77.43
105.05
126.66
141.48
149.98
153.61
154.20
153.10
150.65
146.03
137.83
125.10
108.06
88.33
68.07
48.99
31.45
14.65
-2.67
-21.07
-39.68
-56.55
-69.56
-77.70
-81.48
-82.74
-83.57
-85.25
-87.76
-89.72
-89.48
-85.84
-78.89
-69.73
-59.99
-51.03
-43.48
-37.29
-32.02
-27.50
-23.94
-22.01
-22.41
-25.52
-31.04
-38.12
-45.60
-52.35
-57.63
-60.78
-61.37
-58.88
-52.96
-43.49
-30.94
-16.28
-0.80
14.33
28.50
41.54
53.60
64.71
74.69
83.31
90.32
95.65
99.45
101.87
103.03
103.06
102.12
100.45
98.40
96.01
92.91
88.32
81.27
71.02
57.61
42.01
25.97
11.66
0.87
-5.47
-7.69
-7.19
-5.92
-5.60
-7.15
-10.58
-15.21
-20.25
-25.38
-30.93
-37.69
-46.42
-57.11
-68.91
-80.09
-88.79
-93.71
-94.66
-92.84
-90.20
-88.88
-90.37
-95.24
-103.00
-112.08
-119.77
-122.23
-115.45
-96.63
-66.12
-28.13
10.04
40.80
59.30
65.56
64.01
60.87
61.13
66.27
74.55
82.73
88.43
91.30
92.37
92.87
92.96
91.77
88.10
81.69
73.53
65.66
60.16
57.85
57.98
58.32
56.24
49.65
37.86
21.60
2.71
-16.54
-34.20
-48.97
-60.55
-69.45
-76.93
-84.38
-92.92
-102.86
-113.56
-123.59
-131.41
-136.16
-137.99
-137.98
-137.25
-136.27
-134.37
-130.18
-122.43
-110.62
-95.47
-78.38
-60.76
-43.22
-25.58
-7.30
11.77
30.83
48.36
62.51
71.96
76.39
76.66
74.33
71.08
68.23
66.35
65.47
65.12
64.84
64.25
63.08
61.22
58.48
54.73
49.82
43.89
37.19
30.17
23.37
17.15
11.70
6.96
2.71
-1.34
-5.35
-9.40
-13.43
-17.28
-20.81
-23.97
-26.85
-29.68
-32.68
-35.97
-39.41
-42.57
-44.82
-45.52
-44.20
-40.76
-35.39
-28.47
-20.55
-12.09
-3.62
4.47
11.76
17.83
22.24
24.53
24.55
22.31
18.24
12.93
7.13
1.44
-3.63
-7.88
-11.27
-13.71
-15.08
-15.13
-13.69
-10.67
-6.28
-0.88
4.99
10.72
15.82
19.80
22.34
23.19
22.32
19.86
16.11
11.53
6.44
1.12
-4.38
-10.03
-15.83
-21.81
-27.93
-34.14
-40.30
-46.24
-51.69
-56.39
-59.92
-61.84
-61.71
-59.06
-53.64
-45.40
-34.88
-22.94
-10.69
0.94
11.44
20.65
28.75
35.78
41.65
45.97
48.47
49.14
48.39
46.97
45.62
45.03
45.43
46.73
48.51
50.15
51.05
50.63
48.52
44.57
38.99
32.08
24.33
16.27
8.35
0.99
-5.60
-11.38
-16.58
-21.42
-26.21
-31.01
-35.64
-39.87
-43.59
-46.91
-50.14
-53.64
-57.51
-61.65
-65.66
-69.27
-72.43
-75.38
-78.19
-80.71
-82.24
-81.89
-78.88
-72.81
-63.87
-52.65
-39.90
-26.34
-12.54
0.99
13.72
25.08
34.63
42.05
47.24
50.40
51.81
51.88
51.04
49.69
48.16
46.68
45.35
44.16
43.02
41.72
40.10
38.03
35.53
32.76
29.98
27.40
25.08
22.99
20.88
18.52
15.71
12.38
8.53
4.21
-0.48
-5.47
-10.65
-15.92
-21.17
-26.28
-31.14
-35.70
-40.00
-44.17
-48.30
-52.50
-56.70
-60.75
-64.34
-67.04
-68.31
-67.49
-64.04
-57.58
-48.07
-35.80
-21.41
-5.65
10.67
26.83
42.26
56.47
69.03
79.62
87.96
93.93
97.63
99.49
100.04
99.92
99.65
99.48
99.36
99.05
98.17
96.40
93.62
89.79
85.12
79.85
74.23
68.43
62.44
56.15
49.38
41.98
34.01
25.64
17.12
8.65
0.39
-7.44
-14.60
-20.88
-26.13
-30.35
-33.79
-36.88
-40.05
-43.56
-47.44
-51.58
-55.82
-60.04
-64.14
-67.97
-71.20
-73.28
-73.46
-71.06
-65.72
-57.58
-47.22
-35.53
-23.37
-11.41
0.06
10.86
20.79
29.52
36.59
41.62
44.47
45.42
45.04
44.17
43.49
43.31
43.65
44.23
44.63
44.55
43.90
42.79
41.44
39.94
38.08
35.49
31.66
26.32
19.53
11.78
3.82
-3.56
-9.79
-14.61
-17.98
-20.22
-21.77
-23.20
-25.16
-28.12
-32.16
-36.80
-40.89
-42.94
-41.79
-37.00
-29.17
-19.84
-10.75
-3.25
2.07
5.52
7.97
10.26
13.04
16.53
20.47
24.30
27.20
28.32
27.01
23.05
16.46
7.38
-4.21
-18.47
-35.16
-53.10
-69.73
-81.61
-85.92
-82.27
-73.68
-66.05
-65.86
-77.13
-99.60
-128.66
-157.50
-180.02
-193.06
-196.64
-192.77
-183.57
-169.91
-151.81
-129.32
-103.70
-77.64
-54.28
-35.98
-23.40
-15.53
-10.35
-6.10
-1.91
1.95
4.43
4.58
2.17
-2.15
-6.97
-10.77
-12.57
-12.23
-10.51
-8.74
-8.22
-9.85
-13.80
-19.60
-26.36
-33.14
-39.00
-43.22
-45.25
-44.68
-41.35
-35.27
-26.74
-16.34
-4.75
7.31
19.11
30.03
39.60
47.43
53.33
57.29
59.47
60.21
59.96
59.12
57.95
56.65
55.22
53.68
52.02
50.28
48.58
47.01
45.65
44.49
43.43
42.30
40.96
39.28
37.22
34.87
32.24
29.39
26.33
23.08
19.67
16.20
12.81
9.65
6.74
3.88
0.82
-2.62
-6.47
-10.59
-14.69
-18.60
-22.16
-25.41
-28.54
-31.73
-35.12
-38.80
-42.70
-46.54
-49.77
-51.59
-51.17
-47.91
-41.62
-32.62
-21.62
-9.44
3.12
15.37
26.78
36.89
45.31
51.79
56.24
58.74
59.59
59.21
58.03
56.54
55.13
54.02
53.27
52.80
52.49
52.29
52.20
52.20
52.20
52.04
51.51
50.46
48.88
46.94
44.82
42.68
40.53
38.26
35.71
32.68
29.15
25.14
20.89
16.62
12.54
8.74
5.20
1.74
-1.90
-5.84
-10.18
-14.83
-19.64
-24.45
-29.24
-33.99
-38.77
-43.58
-48.29
-52.62
-56.17
-58.46
-58.96
-57.23
-52.99
-46.19
-37.12
-26.40
-14.84
-3.28
7.59
17.28
25.50
32.08
36.95
40.07
41.60
41.88
41.42
40.80
40.39
40.36
40.60
40.89
41.04
41.04
40.89
40.61
40.10
39.17
37.65
35.51
32.88
30.05
27.32
24.92
22.90
21.24
19.76
18.41
17.13
15.93
14.77
13.58
12.23
10.55
8.46
5.97
3.28
0.61
-1.89
-4.11
-6.13
-8.02
-9.94
-12.00
-14.34
-17.00
-20.02
-23.37
-26.92
-30.47
-33.65
-35.96
-36.74
-35.37
-31.33
-24.50
-15.35
-4.70
6.31
16.59
25.35
32.17
36.91
39.67
40.59
39.74
37.41
33.92
29.71
25.26
20.95
17.04
13.69
11.01
9.01
7.78
7.42
7.98
9.50
11.91
15.02
18.54
22.15
25.47
28.18
30.06
31.01
31.05
30.31
28.93
26.97
24.48
21.39
17.66
13.26
8.31
3.12
-1.92
-6.52
-10.51
-14.02
-17.29
-20.55
-24.04
-27.84
-31.94
-36.29
-40.78
-45.23
-49.34
-52.57
-54.29
-53.92
-51.13
-45.89
-38.58
-29.82
-20.25
-10.46
-0.86
8.22
16.59
23.92
29.91
34.33
37.10
38.44
38.74
38.52
38.24
38.22
38.51
38.93
39.19
39.11
38.59
37.77
36.75
35.62
34.32
32.73
30.67
28.24
25.65
23.29
21.46
20.23
19.38
18.53
17.36
15.70
13.69
11.46
9.12
6.62
3.80
0.48
-3.40
-7.65
-12.03
-16.20
-20.08
-23.76
-27.34
-31.00
-34.78
-38.55
-42.10
-45.10
-47.20
-48.11
-47.63
-45.59
-42.00
-36.95
-30.64
-23.33
-15.28
-6.85
1.54
9.37
16.16
21.42
24.98
26.94
27.62
27.51
27.06
26.57
26.18
25.96
25.85
25.86
25.99
26.13
26.15
25.90
25.19
23.99
22.35
20.41
18.42
16.58
15.00
13.67
12.54
11.37
9.95
8.11
5.71
2.81
-0.52
-4.16
-7.94
-11.71
-15.36
-18.79
-21.88
-24.57
-26.80
-28.60
-30.06
-31.22
-32.22
-33.21
-34.36
-35.79
-37.46
-39.11
-40.34
-40.68
-39.65
-36.98
-32.63
-26.80
-19.84
-12.27
-4.51
3.01
9.84
15.77
20.55
24.11
26.42
27.59
27.78
27.34
26.68
26.06
25.61
25.27
24.91
24.35
23.59
22.71
21.89
21.28
20.88
20.57
20.18
19.57
18.59
17.27
15.72
14.19
12.99
12.29
12.14
12.39
12.74
12.83
12.45
11.39
9.57
6.97
3.51
-0.73
-5.58
-10.72
-15.69
-20.08
-23.69
-26.58
-29.00
-31.29
-33.69
-36.18
-38.50
-40.20
-40.90
-40.28
-38.26
-34.89
-30.36
-24.94
-18.94
-12.68
-6.40
-0.42
5.05
9.79
13.67
16.58
18.51
19.57
19.91
19.81
19.48
19.15
18.91
18.81
18.80
18.76
18.59
18.15
17.37
16.32
15.22
14.29
13.78
13.84
14.32
14.97
15.40
15.30
14.60
13.43
11.99
10.48
9.05
7.55
5.90
3.98
1.70
-0.87
-3.72
-6.79
-10.04
-13.36
-16.65
-19.77
-22.67
-25.36
-27.89
-30.31
-32.54
-34.43
-35.81
-36.53
-36.48
-35.58
-33.77
-30.88
-26.83
-21.62
-15.38
-8.43
-1.22
5.81
12.21
17.62
21.92
24.95
26.72
27.35
27.06
26.11
24.79
23.33
21.86
20.45
19.11
17.77
16.47
15.25
14.14
13.08
11.98
10.75
9.33
7.84
6.44
5.33
4.59
4.18
3.90
3.59
3.05
2.20
1.11
-0.19
-1.55
-2.98
-4.36
-5.64
-6.74
-7.71
-8.68
-9.77
-11.14
-12.78
-14.66
-16.59
-18.42
-20.09
-21.62
-23.11
-24.63
-26.20
-27.71
-28.94
-29.60
-29.35
-27.97
-25.32
-21.53
-16.81
-11.64
-6.44
-1.60
2.60
6.11
8.95
11.26
13.11
14.58
15.53
15.91
15.73
15.08
14.21
13.36
12.76
12.45
12.53
12.98
13.86
15.21
17.00
19.11
21.26
23.17
24.55
25.25
25.26
24.72
23.83
22.73
21.67
20.73
19.95
19.24
18.43
17.39
16.12
14.79
13.71
13.27
13.65
14.80
16.46
18.24
19.84
21.15
22.38
23.88
26.10
29.25
33.40
38.36
43.92
50.01
56.92
65.31
76.02
89.86
107.18
127.88
151.48
177.23
204.49
232.64
261.35
290.52
320.60
352.45
387.06
424.72
464.11
501.96
533.09
551.72
552.99
534.43
496.47
442.07
375.77
302.65
227.67
155.17
88.74
31.03
-16.45
-53.58
-81.41
-101.79
-116.73
-127.90
-136.40
-142.82
-147.34
-150.13
-151.52
-152.05
-152.30
-152.90
-154.26
-156.52
-159.62
-163.38
-167.70
-172.60
-178.35
-185.42
-194.40
-205.53
-218.44
-231.83
-243.73
-252.08
-255.39
-253.24
-246.36
-236.08
-223.67
-209.98
-195.33
-179.83
-163.79
-147.85
-132.82
-119.53
-108.39
-99.42
-92.44
-87.07
-82.96
-79.78
-77.18
-74.78
-72.21
-69.18
-65.53
-61.36
-56.87
-52.41
-48.36
-44.98
-42.41
-40.68
-39.76
-39.67
-40.52
-42.37
-45.15
-48.63
-52.38
-55.97
-59.16
-61.79
-63.94
-65.77
-67.38
-68.84
-70.24
-71.56
-72.96
-74.63
-76.74
-79.54
-83.28
-88.08
-93.95
-100.62
-107.62
-114.51
-121.04
-127.17
-133.06
-138.84
-144.27
-148.93
-152.08
-153.10
-151.79
-148.35
-143.20
-136.68
-128.80
-119.26
-107.89
-94.74
-80.30
-65.25
-50.28
-35.74
-21.83
-8.78
2.86
12.17
18.43
21.57
22.54
23.12
25.22
30.02
37.31
45.62
52.76
57.00
57.78
55.89
53.19
51.49
51.90
54.46
58.50
63.18
68.00
72.90
77.96
83.07
87.55
90.36
90.50
87.57
81.86
74.30
65.93
57.57
49.73
42.58
36.11
30.23
24.77
19.52
14.33
9.34
4.88
1.61
0.05
0.49
2.84
6.77
11.89
17.91
24.55
31.28
37.26
41.52
43.12
41.78
37.81
32.07
25.65
19.49
14.03
9.30
5.04
0.82
-3.66
-8.64
-14.05
-19.48
-24.14
-27.17
-27.86
-26.09
-22.40
-17.66
-12.80
-8.29
-4.11
0.19
5.08
10.91
17.86
25.98
35.36
45.93
57.29
68.67
78.99
87.35
93.33
97.18
99.64
101.60
103.71
106.33
109.53
113.32
117.82
123.14
129.36
136.37
144.03
152.02
160.18
168.32
176.31
184.03
191.16
197.06
200.59
200.12
193.81
180.19
158.62
129.69
95.08
57.11
18.02
-20.75
-58.72
-96.10
-133.17
-169.49
-203.69
-233.60
-256.97
-272.35
-279.75
-280.73
-277.80
-273.54
-269.65
-266.68
-264.13
-261.15
-256.99
-251.48
-244.98
-238.05
-231.17
-224.64
-218.49
-212.71
-207.47
-203.02
-199.64
-197.33
-195.65
-193.52
-189.39
-181.43
-167.93
-147.83
-121.16
-89.18
-54.39
-20.07
10.20
33.24
46.92
50.58
45.24
33.39
18.42
3.94
-7.12
-12.90
-12.72
-6.93
3.39
16.55
30.38
42.23
49.32
49.56
42.42
29.55
14.55
1.68
-5.78
-6.99
-3.82
0.02
0.82
-3.55
-12.92
-25.15
-37.33
-46.80
-51.76
-51.27
-44.96
-32.91
-15.72
5.10
27.22
47.88
64.41
74.99
79.01
77.15
71.13
63.09
55.02
48.24
43.22
39.59
36.59
33.53
30.15
26.76
23.95
22.26
22.00
23.14
25.41
28.50
32.06
35.81
39.50
42.96
46.23
49.63
53.61
58.64
65.02
72.55
80.59
88.27
94.75
99.63
103.04
105.66
108.43
112.20
117.34
123.67
130.58
137.37
143.59
149.21
154.61
160.33
166.81
174.07
181.64
188.53
193.51
195.37
193.16
186.30
174.49
157.61
135.73
109.30
79.38
47.60
15.77
-14.75
-43.50
-70.81
-97.29
-123.03
-147.30
-168.63
-185.54
-197.17
-203.52
-205.24
-202.92
-196.82
-186.86
-173.21
-156.62
-138.42
-120.32
-103.75
-89.52
-77.68
-67.71
-58.87
-50.58
-42.54
-34.69
-27.09
-19.76
-12.74
-5.94
0.64
6.99
12.98
18.30
22.52
25.27
26.39
25.93
24.21
21.61
18.54
15.38
12.28
9.31
6.42
3.59
0.68
-2.47
-6.13
-10.70
-16.53
-23.99
-33.20
-44.12
-56.41
-69.44
-82.25
-93.60
-102.11
-106.57
-106.44
-102.04
-94.67
-86.15
-78.23
-72.03
-67.89
-65.48
-64.25
-63.85
-64.15
-65.35
-67.42
-69.87
-71.60
-71.21
-67.34
-59.13
-46.53
-30.27
-11.58
8.24
28.19
47.73
66.64
84.83
102.11
117.92
131.47
141.83
148.20
150.34
148.64
144.14
138.09
131.50
124.72
117.45
109.00
98.70
86.32
72.11
56.77
41.06
25.66
11.09
-2.29
-14.22
-24.70
-34.11
-43.36
-53.65
-66.24
-81.73
-99.67
-118.59
-136.45
-151.54
-163.09
-171.36
-177.27
-181.65
-184.68
-185.76
-183.89
-178.23
-168.68
-156.01
-141.48
-126.68
-113.04
-101.67
-93.10
-87.15
-82.91
-78.97
-73.90
-66.44
-55.71
-41.08
-22.20
0.76
26.78
53.93
79.48
100.72
115.93
124.95
129.37
131.71
134.31
138.47
144.13
150.27
155.65
159.46
161.49
162.00
161.36
159.53
156.14
150.52
142.23
131.37
118.82
106.12
95.00
86.91
82.43
81.00
81.19
81.18
79.35
74.88
67.79
58.73
48.49
37.67
26.46
14.75
2.40
-10.63
-24.15
-37.83
-51.27
-64.03
-75.59
-85.32
-92.39
-95.89
-95.05
-89.46
-79.32
-65.45
-49.31
-32.64
-17.26
-4.63
4.40
9.68
11.68
11.24
9.20
6.20
2.74
-0.95
-4.58
-7.89
-10.64
-12.67
-13.96
-14.74
-15.24
-15.57
-15.69
-15.40
-14.60
-13.33
-11.66
-9.71
-7.47
-4.66
-0.83
4.35
11.00
18.70
26.73
34.21
40.43
44.95
47.69
48.79
48.37
46.57
43.44
38.97
33.15
26.16
18.33
10.17
2.33
-4.66
-10.28
-14.17
-16.18
-16.30
-14.59
-11.11
-6.03
0.43
7.85
15.78
23.87
31.92
39.83
47.57
55.05
61.91
67.72
72.04
74.65
75.64
75.43
74.47
73.07
71.28
68.89
65.66
61.36
56.04
49.99
43.64
37.39
31.48
25.89
20.44
14.93
9.16
3.02
-3.42
-10.01
-16.56
-22.85
-28.78
-34.40
-39.85
-45.38
-51.26
-57.54
-64.04
-70.25
-75.45
-78.98
-80.44
-79.65
-76.76
-72.06
-65.87
-58.44
-49.95
-40.55
-30.42
-19.75
-8.74
2.31
13.04
22.96
31.62
38.55
43.57
46.60
47.85
47.65
46.42
44.72
43.23
42.65
43.45
45.72
49.12
52.88
56.10
57.97
58.05
56.32
53.18
49.13
44.77
40.57
36.78
33.47
30.53
27.75
24.88
21.69
17.86
13.13
7.14
-0.30
-9.14
-19.03
-29.40
-39.60
-49.04
-57.24
-63.82
-68.47
-70.93
-71.06
-68.92
-64.75
-58.89
-51.69
-43.31
-33.81
-23.28
-12.01
-0.73
9.38
16.89
20.46
19.16
12.94
2.64
-10.23
-23.91
-36.92
-48.37
-57.95
-65.73
-71.95
-76.62
-79.59
-80.80
-80.15
-77.75
-73.82
-68.69
-62.79
-56.71
-51.08
-46.67
-44.11
-43.64
-44.91
-47.07
-48.98
-49.67
-48.67
-46.20
-43.14
-40.66
-39.77
-41.04
-44.38
-49.11
-54.21
-58.62
-61.40
-61.97
-60.10
-55.75
-49.14
-40.55
-30.20
-18.27
-4.84
10.04
26.15
42.81
58.98
73.35
84.79
92.71
97.18
98.80
98.29
96.09
92.37
87.13
80.48
72.88
65.06
57.78
51.53
46.49
42.50
39.35
36.94
35.18
34.00
33.27
32.73
31.99
30.71
28.61
25.62
21.80
17.28
12.19
6.68
0.72
-5.72
-12.73
-20.26
-28.13
-36.07
-43.83
-51.16
-57.78
-63.44
-67.64
-69.84
-69.50
-66.41
-60.70
-52.98
-44.12
-35.01
-26.42
-18.86
-12.61
-7.84
-4.55
-2.59
-1.67
-1.33
-1.11
-0.59
0.60
2.68
5.68
9.49
13.80
18.31
22.62
26.36
29.36
31.52
32.94
33.72
33.91
33.52
32.59
31.11
29.25
27.30
25.54
24.20
23.24
22.40
21.31
19.68
17.37
14.46
11.17
7.61
3.83
-0.34
-5.07
-10.41
-16.05
-21.33
-25.27
-26.81
-25.18
-19.98
-11.38
-0.05
13.07
26.81
40.04
51.75
61.18
67.82
71.62
72.83
71.92
69.57
66.43
63.08
59.99
57.46
55.44
53.86
52.65
51.80
51.55
52.16
53.92
56.84
60.66
64.79
68.58
71.48
73.17
73.57
72.64
70.38
66.64
61.24
54.01
44.93
34.29
22.47
9.91
-3.11
-16.53
-30.43
-44.83
-59.61
-74.30
-88.33
-101.23
-112.54
-122.02
-129.39
-134.32
-136.27
-134.75
-129.39
-120.16
-107.53
-92.14
-74.98
-56.96
-39.05
-22.12
-6.89
6.02
16.33
24.08
29.73
33.82
36.84
39.09
40.61
41.37
41.32
40.63
39.59
38.53
37.68
37.11
36.82
36.71
36.64
36.46
35.97
34.99
33.32
30.89
27.76
24.16
20.31
16.47
12.85
9.57
6.65
4.00
1.45
-1.25
-4.24
-7.65
-11.32
-15.04
-18.56
-21.78
-24.82
-27.79
-30.76
-33.60
-35.87
-36.93
-36.10
-32.88
-26.97
-18.49
-7.83
4.36
17.23
29.91
41.65
51.90
60.18
66.21
69.73
70.63
69.00
65.32
60.32
54.95
50.04
46.05
43.08
40.87
39.09
37.49
36.08
34.95
34.21
33.76
33.37
32.75
31.61
29.84
27.50
24.73
21.73
18.57
15.28
11.86
8.32
4.70
1.08
-2.47
-5.99
-9.59
-13.42
-17.50
-21.82
-26.20
-30.55
-34.73
-38.76
-42.73
-46.65
-50.39
-53.60
-55.85
-56.71
-55.93
-53.36
-49.04
-43.18
-36.11
-28.29
-20.29
-12.68
-5.88
-0.22
4.17
7.26
9.01
9.43
8.53
6.50
3.74
0.86
-1.45
-2.68
-2.50
-0.92
1.84
5.37
9.20
13.00
16.45
19.46
22.02
24.22
26.13
27.76
29.00
29.60
29.26
27.81
25.29
22.03
18.51
15.18
12.23
9.44
6.31
2.35
-2.79
-9.07
-16.29
-24.22
-32.77
-41.91
-51.51
-61.24
-70.43
-78.32
-84.22
-87.72
-88.62
-86.89
-82.55
-75.63
-66.32
-55.03
-42.46
-29.47
-16.96
-5.65
3.98
11.63
17.27
21.07
23.36
24.65
25.51
26.42
27.71
29.45
31.39
33.26
34.72
35.66
36.08
36.17
36.09
35.94
35.73
35.28
34.58
33.54
32.27
30.87
29.48
28.05
26.51
24.66
22.29
19.35
15.83
11.83
7.49
3.02
-1.46
-5.72
-9.57
-12.85
-15.44
-17.48
-19.31
-21.33
-24.02
-27.51
-31.66
-35.97
-39.76
-42.29
-42.87
-41.05
-36.57
-29.56
-20.36
-9.70
1.51
12.35
22.10
30.28
36.72
41.50
44.71
46.48
46.94
46.20
44.49
42.14
39.52
36.95
34.78
33.11
31.94
31.11
30.41
29.67
28.74
27.60
26.18
24.48
22.41
19.93
16.97
13.55
9.73
5.60
1.26
-3.15
-7.54
-11.83
-15.91
-19.67
-23.03
-25.94
-28.50
-30.82
-33.07
-35.40
-37.94
-40.68
-43.58
-46.55
-49.50
-52.35
-54.88
-56.89
-58.07
-58.18
-56.94
-54.11
-49.57
-43.28
-35.41
-26.31
-16.51
-6.60
2.85
11.44
18.87
24.90
29.36
32.14
33.19
32.75
31.26
29.28
27.36
25.88
24.93
24.38
23.98
23.45
22.61
21.42
19.95
18.25
16.45
14.54
12.51
10.35
8.04
5.67
3.36
1.21
-0.78
-2.70
-4.67
-6.72
-8.83
-10.91
-12.91
-14.89
-17.03
-19.53
-22.50
-25.90
-29.52
-33.20
-36.88
-40.56
-44.33
-48.20
-51.93
-55.01
-56.83
-56.75
-54.24
-49.17
-41.61
-31.97
-20.91
-9.17
2.56
13.64
23.58
32.03
38.73
43.65
46.88
48.67
49.32
49.15
48.36
47.01
45.14
42.68
39.77
36.61
33.54
30.88
28.79
27.30
26.22
25.30
24.23
22.83
21.06
19.03
16.91
14.69
12.31
9.58
6.42
2.85
-0.83
-4.33
-7.44
-10.07
-12.49
-14.94
-17.63
-20.64
-23.95
-27.40
-30.93
-34.45
-37.78
-40.79
-43.29
-45.28
-46.91
-48.41
-50.02
-51.72
-53.25
-53.95
-53.05
-49.81
-43.90
-35.41
-24.82
-12.98
-0.85
10.58
20.58
28.70
35.00
39.91
44.08
48.09
52.06
55.45
57.12
55.94
51.15
42.96
32.62
22.08
13.54
8.80
8.66
12.64
19.17
25.86
30.34
30.92
27.10
19.70
10.50
1.64
-5.01
-8.31
-8.11
-5.15
-0.82
3.12
5.11
4.08
-0.20
-7.05
-15.17
-23.13
-29.66
-34.05
-36.35
-37.13
-37.37
-38.11
-40.07
-43.48
-48.13
-53.28
-57.99
-61.47
-63.17
-62.86
-60.54
-56.27
-50.05
-41.96
-32.09
-20.74
-8.45
4.07
16.02
26.70
35.60
42.39
46.95
49.32
49.77
48.70
46.60
43.94
41.15
38.50
36.25
34.57
33.56
33.29
33.68
34.45
35.19
35.46
34.93
33.51
31.37
28.74
25.93
23.07
20.19
17.21
14.10
10.86
7.51
4.12
0.61
-3.04
-6.88
-10.83
-14.67
-18.06
-20.74
-22.62
-23.83
-24.74
-25.80
-27.40
-29.85
-33.08
-36.87
-40.86
-44.66
-48.00
-50.69
-52.64
-53.62
-53.44
-51.73
-48.21
-42.67
-35.10
-25.68
-14.79
-3.13
8.51
19.24
28.23
34.84
38.79
40.26
39.77
38.16
36.21
34.58
33.52
32.94
32.47
31.67
30.28
28.29
26.00
23.82
22.20
21.43
21.54
22.30
23.27
23.99
23.94
22.75
20.20
16.32
11.48
6.31
1.55
-2.27
-4.95
-6.72
-8.07
-9.57
-11.61
-14.34
-17.76
-21.71
-26.12
-30.79
-35.48
-39.76
-43.19
-45.51
-46.77
-47.41
-47.97
-48.89
-50.28
-51.74
-52.55
-51.86
-49.03
-43.74
-36.13
-26.66
-15.98
-4.78
6.32
16.72
25.97
33.70
39.72
43.95
46.50
47.64
47.64
46.83
45.43
43.69
41.81
39.97
38.31
36.85
35.59
34.52
33.57
32.71
31.86
30.90
29.67
28.04
25.88
23.24
20.19
16.84
13.28
9.56
5.70
1.70
-2.25
-5.95
-9.11
-11.54
-13.23
-14.30
-15.08
-15.92
-17.11
-18.76
-20.78
-22.98
-25.23
-27.53
-29.96
-32.72
-35.87
-39.29
-42.78
-46.05
-48.88
-51.05
-52.32
-52.24
-50.39
-46.35
-40.06
-31.88
-22.50
-12.78
-3.36
5.36
13.27
20.34
26.52
31.61
35.39
37.75
38.70
38.49
37.55
36.22
34.78
33.39
32.10
30.88
29.80
28.86
28.09
27.49
26.95
26.31
25.35
23.97
22.13
19.98
17.72
15.46
13.27
11.06
8.73
6.17
3.36
0.31
-2.86
-6.08
-9.25
-12.34
-15.39
-18.43
-21.48
-24.53
-27.51
-30.28
-32.79
-35.14
-37.51
-40.18
-43.33
-46.90
-50.63
-53.94
-56.15
-56.57
-54.70
-50.25
-43.31
-34.31
-23.91
-12.88
-1.97
8.26
17.34
24.91
30.69
34.43
36.06
35.71
33.83
31.01
27.91
25.04
22.64
20.74
19.19
17.95
17.01
16.45
16.34
16.64
17.17
17.64
17.75
17.31
16.41
15.23
14.08
13.01
11.91
10.48
8.40
5.59
2.19
-1.36
-4.71
-7.56
-9.92
-12.01
-14.09
-16.36
-18.86
-21.58
-24.40
-27.30
-30.20
-33.04
-35.88
-38.62
-41.26
-43.69
-45.78
-47.26
-47.76
-46.82
-44.01
-39.12
-32.20
-23.56
-13.77
-3.49
6.62
16.02
24.26
31.01
36.02
39.22
40.70
40.78
39.88
38.48
36.92
35.32
33.70
31.90
29.87
27.63
25.43
23.53
22.02
20.86
19.85
18.79
17.55
16.16
14.76
13.42
12.20
10.95
9.51
7.74
5.64
3.27
0.77
-1.74
-4.23
-6.79
-9.48
-12.29
-15.28
-18.37
-21.51
-24.52
-27.24
-29.55
-31.49
-33.14
-34.70
-36.48
-38.66
-41.25
-43.97
-46.25
-47.43
-46.86
-44.11
-39.08
-32.03
-23.33
-13.47
-3.00
7.53
17.47
26.26
33.38
38.60
41.84
43.33
43.38
42.28
40.33
37.76
34.91
32.10
29.63
27.55
25.87
24.37
22.89
21.40
19.91
18.56
17.37
16.22
14.89
13.21
11.09
8.62
6.08
3.58
1.29
-0.79
-2.70
-4.48
-6.14
-7.71
-9.24
-10.80
-12.56
-14.67
-17.15
-19.97
-22.92
-25.78
-28.36
-30.66
-32.77
-34.93
-37.29
-39.89
-42.53
-44.78
-46.10
-45.96
-43.99
-39.97
-33.95
-26.09
-16.75
-6.48
4.15
14.39
23.51
30.96
36.32
39.47
40.65
40.19
38.57
36.27
33.65
30.88
28.15
25.53
23.14
21.16
19.73
18.93
18.65
18.69
18.71
18.41
17.62
16.28
14.45
12.22
9.67
6.95
4.15
1.39
-1.24
-3.65
-5.85
-7.89
-9.97
-12.20
-14.68
-17.46
-20.43
-23.41
-26.22
-28.78
-31.09
-33.28
-35.45
-37.66
-39.86
-41.91
-43.66
-44.93
-45.61
-45.45
-44.05
-40.99
-35.93
-28.82
-19.95
-9.99
0.25
10.03
18.79
26.24
32.16
36.55
39.50
41.22
42.03
42.35
42.53
42.73
42.96
43.00
42.65
41.71
40.09
37.75
34.77
31.29
27.47
23.53
19.66
16.04
12.73
9.76
7.05
4.49
1.93
-0.87
-4.05
-7.71
-11.80
-16.12
-20.37
-24.16
-27.15
-29.18
-30.30
-30.78
-31.04
-31.48
-32.34
-33.73
-35.67
-38.08
-40.79
-43.49
-45.67
-46.68
-45.92
-42.90
-37.49
-29.92
-20.69
-10.42
0.25
10.73
20.43
28.79
35.40
40.07
42.82
43.89
43.67
42.54
40.82
38.74
36.38
33.80
31.07
28.36
25.92
24.00
22.74
22.11
21.91
21.75
21.26
20.25
18.68
16.68
14.45
12.08
9.53
6.74
3.68
0.36
-3.06
-6.49
-9.87
-13.16
-16.40
-19.59
-22.63
-25.51
-28.24
-30.90
-33.70
-36.82
-40.33
-44.11
-48.00
-51.58
-54.47
-56.26
-56.52
-54.91
-51.21
-45.38
-37.65
-28.57
-18.78
-9.02
0.09
8.20
15.05
20.55
24.74
27.68
29.49
30.43
30.75
30.66
30.39
30.01
29.62
29.29
29.05
28.96
29.07
29.38
29.83
30.42
31.08
31.67
32.05
31.89
30.96
29.12
26.31
22.62
18.22
13.24
7.72
1.78
-4.52
-11.00
-17.39
-23.47
-29.06
-34.03
-38.32
-41.91
-44.71
-46.74
-48.01
-48.68
-49.04
-49.39
-49.87
-50.37
-50.47
-49.55
-47.02
-42.52
-36.06
-27.99
-18.94
-9.64
-0.83
6.89
13.12
17.71
20.71
22.42
23.27
23.74
24.21
24.96
26.07
27.53
29.16
30.72
31.98
32.76
33.07
33.04
32.89
32.77
32.74
32.70
32.42
31.77
30.68
29.20
27.52
25.77
23.98
22.11
20.10
17.87
15.46
12.89
10.12
7.08
3.57
-0.57
-5.44
-10.87
-16.54
-21.98
-26.77
-30.70
-33.69
-35.87
-37.30
-37.92
-37.61
-36.20
-33.55
-29.68
-24.74
-18.85
-12.26
-5.18
2.05
8.95
14.97
19.60
22.42
23.21
22.06
19.17
14.94
9.91
4.63
-0.29
-4.28
-6.97
-8.23
-8.14
-6.90
-4.72
-1.77
1.72
5.55
9.37
12.74
15.24
16.66
17.09
16.88
16.48
16.14
15.91
15.55
14.81
13.56
11.94
10.23
8.74
7.62
6.64
5.39
3.29
-0.09
-4.94
-11.09
-18.11
-25.31
-31.81
-36.76
-39.28
-38.79
-35.05
-28.32
-19.36
-9.30
0.72
9.91
17.83
24.59
30.45
35.60
39.93
43.04
44.55
44.22
42.35
39.51
36.49
33.96
32.17
31.05
30.26
29.59
29.01
28.79
29.17
30.30
32.05
34.01
35.72
36.77
37.05
36.60
35.59
34.06
32.04
29.51
26.52
23.33
20.21
17.37
14.90
12.72
10.59
8.24
5.50
2.25
-1.43
-5.32
-9.06
-12.04
-13.54
-12.88
-9.66
-3.78
4.40
14.31
25.18
36.19
46.58
55.72
63.08
68.16
70.55
69.89
65.99
58.92
49.09
37.39
25.03
13.29
3.29
-4.29
-9.40
-12.45
-14.21
-15.55
-17.27
-19.90
-23.76
-28.86
-34.95
-41.63
-48.36
-54.65
-60.07
-64.39
-67.57
-69.68
-70.93
-71.46
-71.42
-70.84
-69.84
-68.54
-67.05
-65.61
-64.40
-63.63
-63.39
-63.68
-64.33
-65.13
-65.89
-66.49
-67.03
-67.61
-68.25
-68.67
-68.27
-66.23
-61.85
-54.82
-45.38
-34.27
-22.45
-10.89
-0.30
8.81
16.08
21.33
24.46
25.49
24.66
22.46
19.59
16.72
14.46
13.11
12.73
13.08
13.76
14.27
14.20
13.31
11.62
9.34
6.82
4.34
2.03
-0.12
-2.27
-4.52
-6.86
-9.11
-11.10
-12.64
-13.74
-14.49
-14.91
-15.00
-14.65
-13.85
-12.73
-11.70
-11.33
-12.23
-14.77
-18.87
-24.12
-29.81
-35.22
-39.66
-42.56
-43.41
-41.97
-38.11
-31.92
-23.93
-14.86
-5.65
2.80
9.88
15.34
19.21
21.71
23.11
23.64
23.55
23.24
23.14
23.75
25.35
27.88
30.96
33.99
36.39
37.86
38.52
38.61
38.46
38.18
37.63
36.53
34.67
31.93
28.58
25.02
21.57
18.35
15.19
11.77
7.81
3.29
-1.57
-6.30
-10.53
-14.15
-17.34
-20.53
-24.22
-28.68
-33.98
-39.81
-45.66
-50.91
-54.89
-56.99
-56.77
-54.08
-49.00
-41.88
-33.26
-23.79
-14.11
-4.75
3.96
11.80
18.64
24.33
28.62
31.32
32.27
31.52
29.35
26.26
22.76
19.23
15.88
12.75
9.88
7.29
5.12
3.47
2.41
1.88
1.74
1.68
1.50
0.95
-0.09
-1.63
-3.68
-6.14
-8.92
-11.96
-15.24
-18.74
-22.35
-25.99
-29.44
-32.52
-35.16
-37.41
-39.41
-41.35
-43.26
-45.00
-46.24
-46.59
-45.67
-43.19
-39.05
-33.19
-25.73
-16.87
-7.00
3.45
13.99
24.16
33.56
41.81
48.64
53.84
57.36
59.35
60.15
60.15
59.65
58.77
57.41
55.39
52.58
48.97
44.73
40.14
35.43
30.83
26.42
22.16
17.95
13.65
9.17
4.53
-0.23
-5.05
-9.84
-14.58
-19.31
-23.91
-28.20
-32.00
-35.12
-37.60
-39.55
-41.13
-42.39
-43.31
-43.73
-43.57
-42.90
-41.85
-40.52
-38.71
-36.02
-31.96
-26.14
-18.53
-9.45
0.48
10.69
20.60
29.70
37.49
43.59
47.79
50.15
50.95
50.67
49.77
48.43
46.64
44.23
41.12
37.34
33.14
28.87
24.90
21.46
18.59
16.10
13.68
11.03
7.90
4.29
0.39
-3.40
-6.74
-9.39
-11.23
-12.35
-13.01
-13.51
-14.21
-15.50
-17.56
-20.48
-24.14
-28.20
-32.33
-36.33
-40.14
-43.85
-47.58
-51.30
-54.80
-57.61
-59.15
-58.88
-56.37
-51.43
-44.09
-34.67
-23.57
-11.39
1.21
13.52
24.82
34.52
42.18
47.57
50.66
51.74
51.22
49.58
47.29
44.67
41.96
39.34
36.92
34.82
33.14
31.88
30.98
30.42
30.09
29.96
30.03
30.17
30.20
29.87
28.89
27.03
24.23
20.47
15.86
10.59
4.92
-0.86
-6.47
-11.71
-16.48
-20.80
-24.75
-28.48
-32.08
-35.66
-39.31
-43.12
-47.07
-50.99
-54.52
-57.06
-57.89
-56.36
-52.14
-45.25
-36.11
-25.35
-13.71
-1.85
9.66
20.33
29.69
37.23
42.49
45.19
45.42
43.63
40.55
36.94
33.50
30.60
28.41
26.83
25.72
24.92
24.33
23.89
23.62
23.53
23.55
23.62
23.51
22.99
21.81
19.83
17.07
13.72
9.94
5.93
1.74
-2.59
-6.97
-11.36
-15.59
-19.48
-22.95
-26.02
-28.85
-31.74
-34.99
-38.78
-43.18
-47.98
-52.77
-56.96
-59.95
-61.14
-60.10
-56.60
-50.56
-42.10
-31.43
-18.89
-4.98
9.65
24.25
37.99
50.09
59.95
67.18
71.69
73.69
73.62
72.01
69.44
66.32
62.87
59.16
55.11
50.73
46.01
41.14
36.35
31.95
28.17
25.19
22.96
21.27
19.80
18.09
15.81
12.69
8.73
4.07
-0.93
-5.92
-10.59
-14.70
-18.17
-21.08
-23.65
-26.18
-29.01
-32.49
-36.86
-42.32
-48.87
-56.32
-64.29
-72.11
-79.01
-84.12
-86.72
-86.35
-82.92
-76.66
-68.06
-57.70
-46.13
-33.88
-21.38
-9.16
2.26
12.25
20.27
25.94
29.21
30.37
29.95
28.52
26.57
24.42
22.28
20.41
19.02
18.40
18.69
19.88
21.80
24.18
26.75
29.22
31.36
32.82
33.28
32.49
30.38
27.05
22.78
17.87
12.60
7.16
1.70
-3.59
-8.41
-12.53
-15.73
-18.07
-19.80
-21.24
-22.84
-24.97
-27.87
-31.49
-35.49
-39.06
-41.12
-40.57
-36.56
-28.88
-18.04
-5.15
8.37
21.10
31.91
40.08
45.23
47.49
47.26
45.22
42.21
38.98
36.10
33.92
32.50
31.72
31.45
31.46
31.58
31.61
31.27
30.28
28.51
25.78
22.07
17.50
12.31
6.85
1.56
-3.23
-7.48
-11.30
-15.07
-19.12
-23.72
-29.00
-34.94
-41.40
-48.20
-55.11
-61.81
-68.00
-73.42
-78.02
-82.02
-85.69
-89.05
-91.78
-93.07
-92.01
-87.85
-80.39
-70.03
-57.67
-44.29
-30.59
-16.97
-3.58
9.41
21.70
32.77
42.17
49.57
54.89
58.26
59.91
60.06
58.92
56.65
53.47
49.68
45.63
41.73
38.36
35.79
34.19
33.45
33.30
33.29
33.01
32.10
30.42
28.04
25.10
21.81
18.25
14.45
10.26
5.50
0.03
-6.21
-13.13
-20.53
-28.08
-35.44
-42.27
-48.22
-52.98
-56.21
-57.61
-56.91
-53.89
-48.31
-40.13
-29.58
-17.25
-4.06
8.95
20.85
31.04
39.19
45.34
49.52
51.84
52.38
51.35
49.12
46.22
43.21
40.50
38.43
37.10
36.55
36.72
37.52
38.94
41.01
43.74
47.06
50.73
54.31
57.28
59.13
59.71
59.12
57.81
56.28
54.93
54.04
53.80
54.51
56.41
59.70
64.24
69.55
74.90
79.45
82.55
83.73
82.82
79.88
75.11
68.90
61.79
54.64
48.33
43.73
41.36
41.43
43.67
47.52
52.10
56.40
59.49
60.55
59.21
55.37
49.38
41.78
33.20
24.14
14.99
6.12
-2.22
-9.72
-16.19
-21.65
-26.30
-30.49
-34.64
-39.10
-43.97
-49.15
-54.26
-58.89
-62.82
-66.04
-68.82
-71.63
-74.93
-78.96
-83.71
-88.88
-94.05
-98.85
-103.01
-106.45
-109.19
-111.48
-113.52
-115.62
-117.89
-120.30
-122.65
-124.47
-125.23
-124.36
-121.42
-116.17
-108.73
-99.45
-88.92
-77.80
-66.78
-56.47
-47.36
-39.83
-34.02
-29.92
-27.35
-26.01
-25.45
-25.21
-24.89
-24.19
-22.90
-20.96
-18.42
-15.47
-12.35
-9.38
-6.87
-5.11
-4.30
-4.45
-5.34
-6.57
-7.68
-8.36
-8.64
-8.95
-10.00
-12.55
-17.00
-23.20
-30.41
-37.55
-43.57
-47.80
-50.03
-50.52
-49.74
-48.23
-46.35
-44.21
-41.62
-38.24
-33.80
-28.09
-21.21
-13.36
-4.87
4.03
13.18
22.59
32.31
42.19
51.93
60.97
68.65
74.34
77.72
78.82
78.02
75.76
72.37
67.88
62.04
54.68
45.85
36.06
26.22
17.48
10.80
6.75
5.37
6.18
8.39
11.18
13.77
15.58
16.27
15.65
13.72
10.69
6.94
3.01
-0.56
-3.48
-5.89
-8.21
-11.07
-14.87
-19.56
-24.54
-28.84
-31.38
-31.33
-28.33
-22.49
-14.29
-4.42
6.45
17.66
28.67
38.94
47.90
55.00
59.80
62.28
62.77
62.01
60.79
59.86
59.74
60.62
62.47
65.08
68.06
70.83
72.74
73.13
71.59
68.13
63.20
57.46
51.58
46.05
41.05
36.54
32.36
28.27
23.92
18.92
12.91
5.65
-2.63
-11.33
-19.48
-25.99
-30.11
-31.54
-30.59
-28.02
-24.76
-21.61
-19.18
-17.62
-16.82
-16.46
-16.03
-15.04
-12.96
-9.32
-3.73
4.04
13.99
25.73
38.39
50.70
61.22
68.71
72.38
72.09
68.23
61.59
53.16
43.83
34.43
25.72
18.24
12.30
7.83
4.47
1.63
-1.12
-4.03
-7.11
-10.11
-12.90
-15.51
-18.34
-21.83
-26.52
-32.66
-40.12
-48.35
-56.29
-62.77
-66.64
-67.21
-64.45
-59.08
-52.27
-45.27
-39.25
-34.99
-33.07
-33.84
-37.42
-43.59
-51.53
-59.82
-66.50
-69.73
-68.11
-61.30
-50.00
-35.73
-20.52
-6.31
5.41
13.81
18.54
19.79
17.88
13.27
6.58
-1.34
-9.44
-16.63
-22.09
-25.47
-26.85
-26.65
-25.40
-23.52
-21.36
-19.27
-17.61
-16.88
-17.39
-19.12
-21.66
-24.36
-26.43
-27.36
-27.02
-25.66
-23.90
-22.50
-22.14
-23.40
-26.54
-31.34
-37.32
-43.65
-49.47
-54.13
-57.40
-59.39
-60.50
-61.18
-61.60
-61.69
-61.02
-59.07
-55.27
-49.33
-41.21
-31.30
-20.26
-8.88
2.09
12.22
21.30
29.27
36.07
41.68
46.00
49.09
51.09
52.22
52.71
52.63
51.82
50.12
47.50
44.17
40.53
37.07
34.17
32.03
30.68
29.98
29.77
29.75
29.70
29.24
28.09
26.01
22.95
18.98
14.25
8.88
2.96
-3.37
-9.97
-16.58
-22.93
-28.74
-33.85
-38.16
-41.67
-44.35
-45.93
-46.00
-44.03
-39.61
-32.65
-23.41
-12.45
-0.51
11.55
22.99
33.02
41.13
47.00
50.69
52.62
53.57
54.31
55.39
57.09
59.09
60.91
61.93
61.70
59.97
56.74
52.12
46.22
39.31
31.53
23.19
14.57
6.02
-2.09
-9.37
-15.46
-20.00
-22.65
-23.42
-22.43
-20.26
-17.82
-16.10
-16.03
-18.20
-22.73
-29.22
-37.11
-45.71
-54.43
-62.80
-70.16
-75.79
-78.73
-78.18
-73.56
-64.96
-53.02
-38.85
-23.78
-8.96
4.69
16.57
26.22
33.46
38.15
40.52
40.97
40.09
38.51
36.69
34.81
32.91
31.03
29.35
28.23
28.06
28.90
30.42
31.96
32.77
32.28
30.37
27.41
24.05
21.03
18.75
17.28
16.24
15.03
12.97
9.62
4.88
-0.97
-7.30
-13.35
-18.40
-22.02
-24.21
-25.32
-26.00
-26.93
-28.55
-30.84
-33.25
-34.88
-34.72
-32.09
-26.74
-18.97
-9.44
0.95
11.32
20.95
29.16
35.48
39.43
40.66
39.01
34.58
27.78
19.32
10.17
1.31
-6.35
-12.17
-15.84
-17.35
-17.04
-15.42
-13.16
-10.90
-9.18
-8.30
-8.38
-9.39
-11.07
-13.05
-14.99
-16.61
-17.85
-18.87
-19.94
-21.35
-23.28
-25.74
-28.56
-31.61
-34.80
-38.08
-41.41
-44.51
-47.05
-48.47
-48.35
-46.30
-42.23
-36.22
-28.57
-19.52
-9.32
1.78
13.47
25.19
36.22
45.59
52.52
56.40
57.09
54.91
50.54
44.87
38.81
33.16
28.38
24.63
21.84
19.76
18.20
17.10
16.56
16.70
17.54
18.89
20.28
21.24
21.28
20.23
18.08
15.04
11.38
7.34
3.02
-1.52
-6.21
-10.94
-15.55
-19.97
-24.18
-28.27
-32.32
-36.43
-40.60
-44.75
-48.80
-52.61
-55.91
-58.33
-59.30
-58.14
-54.39
-47.84
-38.70
-27.68
-15.68
-3.57
7.84
17.99
26.52
33.11
37.56
39.83
39.98
38.43
35.76
32.51
29.18
26.07
23.28
20.79
18.56
16.52
14.70
13.05
11.47
9.90
8.33
6.75
5.32
4.21
3.50
3.23
3.24
3.15
2.56
1.14
-1.42
-5.14
-9.92
-15.60
-21.97
-28.82
-35.99
-43.17
-50.04
-56.22
-61.36
-65.11
-67.29
-67.66
-66.01
-62.12
-55.80
-47.17
-36.68
-25.06
-13.21
-2.06
7.68
15.59
21.49
25.39
27.47
27.95
27.17
25.63
23.85
22.34
21.44
21.21
21.54
22.22
22.98
23.54
23.77
23.57
22.89
21.75
20.14
18.09
15.70
13.04
10.24
7.46
4.82
2.29
-0.17
-2.76
-5.65
-8.87
-12.38
-16.03
-19.58
-22.96
-26.20
-29.35
-32.53
-35.76
-38.89
-41.61
-43.46
-43.88
-42.45
-38.82
-32.88
-24.80
-15.02
-4.15
7.09
17.90
27.63
35.66
41.58
45.20
46.55
45.93
43.87
40.95
37.69
34.47
31.50
28.90
26.78
25.21
24.23
23.82
23.81
23.89
23.75
23.18
22.05
20.46
18.48
16.25
13.81
11.18
8.27
5.09
1.62
-2.08
-5.82
-9.48
-13.00
-16.44
-20.01
-23.95
-28.47
-33.66
-39.41
-45.34
-50.94
-55.65
-58.84
-59.92
-58.32
-53.70
-46.06
-35.70
-23.34
-9.89
3.64
16.45
27.87
37.55
45.36
51.19
55.05
56.93
56.89
55.21
52.34
48.80
45.17
41.89
39.19
37.12
35.61
34.59
34.05
33.88
33.92
33.88
33.48
32.41
30.51
27.78
24.28
20.25
15.85
11.26
6.63
2.11
-2.30
-6.60
-10.84
-15.10
-19.31
-23.38
-27.15
-30.55
-33.70
-36.84
-40.33
-44.38
-48.94
-53.51
-57.24
-59.10
-58.21
-54.09
-46.78
-36.83
-25.08
-12.46
0.20
12.26
23.20
32.61
40.09
45.30
48.04
48.37
46.64
43.46
39.55
35.50
31.72
28.40
25.53
23.12
21.22
19.93
19.29
19.32
19.85
20.67
21.66
22.71
23.84
25.07
26.30
27.27
27.56
26.81
24.73
21.34
16.89
11.82
6.63
1.68
-2.87
-7.12
-11.24
-15.43
-19.82
-24.51
-29.59
-35.14
-41.18
-47.46
-53.47
-58.46
-61.50
-61.72
-58.61
-52.11
-42.64
-31.01
-18.17
-5.15
7.17
18.14
27.41
34.79
40.23
43.78
45.60
45.89
44.96
43.11
40.63
37.86
35.13
32.73
31.08
30.55
31.40
33.73
37.34
41.70
46.10
49.82
52.25
53.13
52.46
50.55
47.74
44.29
40.26
35.53
30.03
23.76
16.94
9.80
2.62
-4.57
-11.81
-19.31
-27.12
-35.20
-43.43
-51.62
-59.61
-67.13
-73.82
-79.06
-82.17
-82.46
-79.49
-73.26
-64.16
-52.88
-40.29
-27.23
-14.42
-2.46
8.15
17.04
23.93
28.74
31.62
32.91
33.17
32.99
32.90
33.31
34.41
36.19
38.54
41.22
43.97
46.63
49.01
50.90
52.13
52.59
52.22
51.11
49.46
47.49
45.43
43.40
41.36
39.12
36.42
33.02
28.73
23.42
17.04
9.57
1.10
-8.17
-17.99
-28.12
-38.29
-48.17
-57.51
-66.08
-73.73
-80.29
-85.56
-89.17
-90.69
-89.57
-85.28
-77.64
-66.89
-53.68
-38.87
-23.42
-8.08
6.44
19.64
31.00
40.11
46.74
50.97
53.23
54.14
54.44
54.69
55.20
55.98
56.80
57.40
57.45
56.73
55.12
52.58
49.18
44.98
40.09
34.56
28.56
22.27
15.88
9.54
3.37
-2.63
-8.57
-14.45
-20.11
-25.28
-29.61
-32.96
-35.42
-37.24
-38.80
-40.43
-42.38
-44.73
-47.48
-50.50
-53.67
-56.84
-59.87
-62.62
-64.93
-66.47
-66.67
-64.96
-60.74
-53.68
-43.81
-31.53
-17.47
-2.42
12.88
27.66
41.19
52.87
62.19
68.92
73.07
75.03
75.33
74.63
73.38
71.96
70.52
69.09
67.68
66.34
65.16
64.23
63.55
62.96
62.28
61.28
59.83
57.81
55.15
51.70
47.29
41.88
35.70
29.36
23.69
19.50
17.14
16.27
16.07
15.69
14.73
13.55
12.84
13.35
15.32
18.40
21.76
24.49
25.91
25.33
21.98
14.77
2.92
-13.38
-32.60
-52.09
-69.22
-82.31
-91.31
-97.30
-101.58
-104.66
-105.99
-104.48
-99.44
-91.34
-81.71
-72.70
-66.06
-62.64
-62.17
-63.43
-64.74
-64.37
-61.12
-54.77
-46.02
-36.15
-26.58
-18.25
-11.47
-6.09
-1.66
2.28
6.22
10.64
15.80
21.51
26.89
30.57
31.23
28.37
22.70
15.86
9.72
5.49
3.40
2.87
3.13
3.81
4.96
6.86
9.37
11.82
13.22
12.70
9.81
4.77
-1.89
-9.42
-17.17
-24.65
-31.38
-36.67
-39.44
-38.52
-32.94
-22.74
-9.22
5.25
17.99
27.18
32.42
34.89
36.37
38.38
41.34
44.63
47.31
48.81
49.36
49.74
50.72
52.45
54.35
55.32
54.29
50.84
45.14
37.99
30.27
22.64
15.33
8.23
1.13
-5.98
-12.76
-18.65
-23.06
-25.69
-26.76
-26.83
-26.73
-27.09
-28.26
-30.15
-32.53
-35.03
-37.47
-39.91
-42.56
-45.64
-49.28
-53.51
-58.22
-63.30
-68.50
-73.51
-77.98
-81.40
-83.20
-82.80
-79.76
-73.98
-65.72
-55.62
-44.52
-33.33
-22.72
-13.21
-5.00
1.81
7.19
11.20
14.07
16.14
17.79
19.34
20.90
22.41
23.72
24.80
25.69
26.58
27.61
28.77
29.84
30.49
30.35
29.19
27.05
24.11
20.69
17.01
13.25
9.44
5.60
1.65
-2.46
-6.76
-11.21
-15.68
-19.96
-23.82
-27.04
-29.44
-31.05
-32.03
-32.65
-33.29
-34.25
-35.59
-37.14
-38.41
-38.69
-37.28
-33.62
-27.50
-19.15
-9.11
1.91
13.03
23.44
32.44
39.54
44.49
47.28
48.04
47.10
44.94
42.11
39.13
36.44
34.31
32.80
31.85
31.26
30.87
30.57
30.26
29.83
29.10
27.90
26.14
23.80
20.91
17.54
13.74
9.52
4.92
0.12
-4.75
-9.46
-13.90
-18.07
-22.12
-26.12
-30.14
-34.05
-37.62
-40.74
-43.34
-45.46
-47.30
-49.08
-51.04
-53.28
-55.72
-58.00
-59.60
-59.90
-58.33
-54.51
-48.44
-40.37
-30.74
-20.09
-8.94
2.21
12.92
22.76
31.29
38.16
43.08
46.05
47.26
47.12
46.11
44.64
43.01
41.31
39.64
38.04
36.60
35.41
34.44
33.58
32.57
31.12
29.01
26.15
22.64
18.65
14.40
10.12
5.95
1.95
-1.85
-5.42
-8.79
-12.01
-15.19
-18.37
-21.57
-24.68
-27.69
-30.62
-33.52
-36.50
-39.70
-43.16
-46.79
-50.46
-53.85
-56.70
-58.65
-59.16
-57.70
-53.79
-47.17
-37.92
-26.54
-13.80
-0.63
12.09
23.72
33.80
42.02
48.22
52.27
54.27
54.44
53.23
51.09
48.50
45.74
42.98
40.31
37.67
35.10
32.66
30.43
28.39
26.51
24.58
22.45
19.94
17.01
13.75
10.43
7.24
4.30
1.66
-0.77
-3.08
-5.34
-7.65
-10.11
-12.85
-16.01
-19.64
-23.72
-28.06
-32.46
-36.76
-40.96
-45.23
-49.79
-54.79
-60.13
-65.34
-69.66
-72.19
-72.15
-69.07
-62.94
-54.14
-43.28
-31.19
-18.57
-6.13
5.56
16.00
24.75
31.51
36.12
38.65
39.34
38.72
37.32
35.59
33.82
32.16
30.67
29.49
28.75
28.61
29.15
30.20
31.42
32.36
32.72
32.37
31.31
29.69
27.59
25.19
22.65
20.10
17.63
15.22
12.71
9.86
6.53
2.63
-1.66
-6.05
-10.15
-13.63
-16.41
-18.58
-20.42
-22.24
-24.40
-27.12
-30.38
-33.91
-37.19
-39.53
-40.11
-38.19
-33.22
-25.09
-14.21
-1.43
11.98
24.76
35.82
44.42
50.25
53.47
54.46
53.78
51.95
49.32
46.20
42.81
39.25
35.61
32.00
28.46
25.08
21.93
19.15
16.88
15.20
13.96
12.82
11.35
9.11
5.94
1.96
-2.45
-6.86
-11.01
-14.82
-18.39
-21.88
-25.45
-29.08
-32.66
-36.09
-39.34
-42.49
-45.66
-48.95
-52.32
-55.74
-59.02
-62.00
-64.38
-65.85
-65.88
-63.89
-59.47
-52.41
-42.93
-31.54
-19.04
-6.20
6.33
18.05
28.57
37.57
44.66
49.59
52.24
52.72
51.34
48.66
45.18
41.44
37.84
34.68
32.14
30.30
29.14
28.60
28.58
28.89
29.35
29.71
29.77
29.27
28.04
25.99
23.15
19.61
15.50
11.02
6.34
1.57
-3.21
-7.92
-12.57
-17.13
-21.67
-26.29
-31.09
-36.06
-41.17
-46.29
-51.29
-56.06
-60.41
-64.06
-66.56
-67.37
-65.90
-61.77
-54.80
-45.25
-33.68
-20.89
-7.68
5.10
16.76
26.82
34.95
41.02
44.97
46.91
46.95
45.44
42.85
39.81
36.86
34.39
32.55
31.26
30.33
29.58
28.90
28.23
27.46
26.41
24.86
22.72
19.98
16.72
13.15
9.39
5.52
1.54
-2.49
-6.50
-10.28
-13.66
-16.63
-19.16
-21.30
-23.11
-24.54
-25.57
-26.32
-27.04
-28.17
-30.17
-33.34
-37.68
-42.78
-47.84
-51.90
-54.03
-53.50
-49.92
-43.37
-34.28
-23.36
-11.51
0.51
11.93
22.18
30.80
37.59
42.40
45.27
46.38
46.02
44.59
42.47
40.01
37.43
34.84
32.24
29.64
27.16
24.84
22.85
21.23
19.85
18.54
17.12
15.44
13.58
11.73
9.99
8.50
7.25
6.09
4.86
3.38
1.52
-0.73
-3.25
-5.91
-8.58
-11.20
-13.79
-16.38
-19.01
-21.66
-24.35
-27.03
-29.69
-32.17
-34.16
-35.19
-34.62
-32.01
-27.17
-20.29
-11.81
-2.28
7.85
18.10
28.02
37.15
44.87
50.67
54.17
55.32
54.29
51.58
47.75
43.39
39.02
35.01
31.63
28.84
26.49
24.25
21.88
19.21
16.23
13.13
10.17
7.66
5.82
4.70
4.23
4.14
4.16
3.88
3.07
1.53
-0.73
-3.63
-7.02
-10.73
-14.57
-18.35
-21.97
-25.23
-28.08
-30.47
-32.50
-34.28
-36.02
-37.84
-39.78
-41.85
-43.91
-45.97
-48.14
-50.62
-53.69
-57.53
-62.14
-67.14
-71.93
-75.63
-77.41
-76.56
-72.68
-65.77
-56.14
-44.42
-31.37
-17.81
-4.52
7.80
18.60
27.54
34.41
39.12
41.78
42.61
41.97
40.36
38.31
36.32
34.79
33.85
33.46
33.47
33.80
34.44
35.44
36.78
38.29
39.60
40.26
39.87
38.26
35.55
32.12
28.42
24.85
21.57
18.56
15.67
12.74
9.76
6.95
4.54
2.77
1.57
0.60
-0.56
-2.33
-4.83
-7.87
-10.93
-13.35
-14.46
-13.73
-10.76
-5.27
2.88
13.68
26.88
41.93
57.98
74.07
89.30
103.05
114.95
124.75
132.04
136.08
136.05
131.35
121.99
108.82
93.26
76.95
61.19
46.80
34.07
23.01
13.56
5.67
-0.82
-6.18
-10.82
-15.25
-19.76
-24.55
-29.49
-34.21
-38.25
-41.20
-42.90
-43.55
-43.69
-43.97
-45.03
-47.07
-49.94
-53.21
-56.33
-58.95
-60.94
-62.37
-63.35
-64.03
-64.46
-64.63
-64.47
-63.73
-62.07
-59.13
-54.58
-48.35
-40.62
-31.81
-22.45
-13.10
-4.16
4.03
11.11
16.81
20.77
22.84
23.02
21.63
19.21
16.47
13.99
12.15
11.10
10.76
10.99
11.61
12.47
13.39
14.23
14.79
14.91
14.54
13.67
12.37
10.70
8.64
6.15
3.18
-0.27
-4.22
-8.63
-13.56
-19.08
-25.25
-32.10
-39.47
-47.14
-54.77
-62.05
-68.72
-74.62
-79.71
-84.04
-87.68
-90.68
-92.90
-94.06
-93.68
-91.22
-86.32
-78.78
-68.77
-56.70
-43.17
-28.79
-14.24
-0.15
12.94
24.52
34.17
41.65
46.77
49.61
50.42
49.67
48.02
46.16
44.62
43.59
43.01
42.56
41.96
41.00
39.62
37.83
35.59
32.77
29.27
25.12
20.47
15.70
11.17
7.16
3.79
0.93
-1.76
-4.66
-8.10
-12.38
-17.47
-23.23
-29.34
-35.43
-41.30
-46.86
-52.21
-57.53
-63.09
-68.93
-74.95
-80.85
-86.01
-89.83
-91.57
-90.61
-86.59
-79.43
-69.33
-56.84
-42.77
-27.86
-12.93
1.40
14.64
26.39
36.33
44.27
50.04
53.62
55.20
55.09
53.80
51.91
49.86
47.99
46.42
45.14
44.08
43.23
42.54
41.99
41.45
40.62
39.21
36.98
33.91
30.21
26.20
22.25
18.48
14.95
11.48
7.94
4.19
0.22
-3.92
-8.20
-12.50
-16.85
-21.20
-25.54
-29.86
-34.22
-38.77
-43.59
-48.73
-54.01
-59.06
-63.30
-66.03
-66.57
-64.37
-59.13
-50.81
-39.74
