1624789993.00
64.000000
-0.00
-0.00
-0.00
-0.00
-0.00
-0.00
-0.00
-0.00
-0.00
-0.00
0.00
0.01
0.01
-0.00
-0.03
-0.05
-0.05
0.00
0.13
0.36
0.66
1.01
1.37
1.72
2.06
2.40
2.79
3.24
3.80
4.42
5.07
5.69
6.25
6.78
7.32
7.95
8.73
9.76
10.96
12.21
13.41
14.49
15.50
16.61
18.03
19.91
22.47
25.51
28.77
31.95
34.89
37.67
40.61
44.16
48.64
54.45
61.23
68.47
75.58
82.23
88.51
94.92
102.20
110.89
121.56
133.70
146.52
159.13
170.98
182.13
193.25
205.73
218.29
233.25
251.19
272.22
295.10
316.93
333.41
339.93
333.19
312.34
279.80
239.40
195.45
151.13
107.97
66.22
25.78
-13.05
-49.51
-82.29
-110.77
-134.75
-154.72
-171.10
-184.03
-193.25
-198.29
-199.01
-195.53
-188.80
-180.09
-170.71
-161.65
-153.38
-145.92
-138.58
-130.87
-122.48
-113.59
-104.64
-96.16
-88.53
-81.81
-75.86
-70.34
-65.03
-59.83
-54.82
-50.25
-46.38
-43.35
-41.16
-39.66
-38.60
-37.72
-36.85
-35.84
-34.66
-33.32
-31.83
-30.29
-28.77
-27.41
-26.39
-25.90
-26.12
-27.16
-29.03
-31.66
-34.90
-38.48
-42.12
-45.53
-48.46
-50.68
-52.04
-52.49
-52.00
-50.69
-48.68
-46.12
-43.20
-40.08
-36.89
-33.73
-30.69
-27.79
-25.07
-22.51
-20.09
-17.75
-15.43
-13.09
-10.63
-8.08
-5.40
-2.65
0.09
2.74
5.17
7.29
8.95
10.10
10.65
10.55
9.74
8.21
5.96
3.00
-0.51
-4.48
-8.70
-13.01
-17.29
-21.45
-25.48
-29.31
-32.93
-36.17
-38.89
-40.92
-42.13
-42.52
-42.19
-41.42
-40.46
-39.68
-39.27
-39.43
-40.27
-41.94
-44.70
-48.86
-54.85
-62.96
-73.36
-85.93
-100.26
-115.74
-131.51
-146.99
-161.55
-175.25
-188.47
-202.27
-217.66
-235.14
-254.15
-272.59
-287.77
-296.78
-297.98
-290.93
-276.51
-256.22
-231.57
-204.30
-176.09
-149.11
-125.09
-105.12
-88.83
-74.73
-61.09
-46.75
-32.30
-19.13
-9.18
-3.32
-1.35
-2.15
-4.29
-7.30
-10.97
-15.71
-21.05
-26.12
-29.40
-29.70
-27.15
-22.75
-18.63
-16.06
-15.65
-16.21
-16.04
-13.65
-8.48
-1.64
5.34
10.45
12.98
13.16
12.71
13.77
17.89
25.76
36.19
47.61
58.04
66.74
73.91
80.60
88.01
96.30
105.28
113.83
121.56
128.32
134.77
141.51
148.32
154.49
158.34
158.96
156.00
150.77
145.27
141.51
140.56
141.57
142.80
141.76
137.36
129.71
120.58
112.09
105.58
101.31
97.87
93.96
88.28
80.97
72.80
64.79
57.67
51.15
44.98
38.53
32.12
26.24
21.74
19.14
18.13
18.13
17.81
16.62
14.16
11.26
9.02
8.58
10.56
14.24
18.35
20.87
20.81
17.96
13.68
9.85
7.86
8.29
10.13
12.27
13.43
13.61
13.34
13.48
14.59
16.17
17.62
17.89
16.91
14.89
12.88
11.79
11.98
13.41
14.93
15.67
14.47
11.35
6.89
2.37
-0.94
-2.76
-3.36
-4.11
-5.71
-8.52
-11.56
-13.51
-13.53
-11.51
-8.79
-6.65
-6.30
-7.47
-9.14
-9.88
-8.72
-5.92
-2.17
1.20
3.75
5.32
6.57
8.11
10.14
12.76
15.38
17.87
19.85
21.57
23.19
24.90
26.81
28.34
28.91
27.33
23.19
16.44
8.32
0.60
-5.15
-7.99
-8.79
-9.02
-10.76
-14.92
-21.32
-28.41
-34.13
-37.10
-36.62
-33.59
-29.02
-24.35
-20.12
-16.35
-12.80
-9.08
-5.57
-2.46
-0.33
1.16
2.50
4.45
7.35
10.45
12.79
12.97
10.85
7.00
3.15
0.89
0.88
2.80
4.92
5.86
4.44
1.06
-3.11
-6.42
-7.63
-6.79
-4.66
-2.96
-2.67
-4.25
-6.75
-8.75
-9.20
-7.71
-5.37
-3.30
-2.70
-3.22
-3.71
-2.43
1.81
8.58
16.45
22.85
26.29
26.26
24.15
22.13
21.93
24.27
27.87
31.12
32.13
30.65
27.50
24.33
22.60
22.37
22.97
22.78
21.08
17.82
14.23
11.80
11.41
13.11
15.49
17.21
16.93
14.78
11.75
9.46
9.14
10.58
12.72
13.50
11.88
7.73
2.56
-1.63
-3.52
-2.82
-0.91
0.81
0.97
-0.31
-2.18
-3.36
-2.81
-0.65
2.77
6.28
9.44
11.91
14.18
16.91
20.53
25.22
30.06
34.13
36.05
35.47
32.69
28.75
24.74
20.66
15.97
9.08
-0.58
-12.82
-25.80
-37.35
-46.03
-51.52
-55.31
-58.97
-64.12
-70.84
-78.42
-85.47
-90.60
-93.23
-92.97
-90.55
-86.48
-81.66
-76.37
-70.46
-63.60
-55.37
-46.65
-38.71
-33.68
-32.49
-34.58
-37.58
-38.47
-35.64
-29.22
-21.83
-15.97
-13.40
-13.62
-14.88
-15.65
-15.27
-14.81
-15.09
-16.62
-18.21
-18.21
-15.27
-9.05
-0.80
7.99
15.40
20.65
23.32
24.20
24.52
25.49
28.17
32.12
36.41
39.14
39.34
36.93
33.15
29.74
27.51
26.67
26.03
24.99
23.36
22.26
23.12
26.76
33.18
40.74
47.85
52.72
55.03
55.34
54.92
55.03
55.71
56.33
55.31
52.03
46.48
40.27
35.27
32.55
32.18
32.46
31.98
29.54
25.75
21.86
19.18
18.23
17.90
16.90
13.73
8.57
2.38
-2.95
-6.00
-6.58
-5.34
-4.17
-4.22
-6.38
-9.91
-13.52
-15.70
-15.45
-13.23
-10.02
-7.69
-7.01
-8.09
-9.64
-10.08
-8.52
-4.91
-0.84
2.33
3.29
2.41
0.83
0.03
0.95
2.95
4.93
5.11
3.11
-0.66
-4.51
-6.77
-6.79
-4.80
-2.53
-1.22
-1.91
-3.99
-6.26
-7.42
-6.81
-5.29
-4.00
-4.50
-6.90
-10.53
-13.70
-14.97
-13.98
-11.24
-8.57
-7.20
-8.07
-10.55
-13.46
-15.42
-15.50
-14.14
-12.19
-11.30
-12.06
-14.46
-17.18
-18.62
-17.85
-14.80
-11.01
-7.87
-6.70
-7.13
-7.95
-7.60
-5.11
-1.19
2.91
5.30
5.59
4.28
3.11
3.69
6.46
10.89
15.14
18.07
19.07
19.28
20.26
23.33
28.74
35.03
40.53
43.41
43.68
42.50
42.24
44.87
50.80
58.97
66.66
71.42
71.61
67.78
62.28
58.40
59.14
65.50
76.33
88.18
97.32
100.50
96.15
84.36
66.77
46.68
28.51
17.86
19.69
37.28
69.90
112.37
156.13
191.41
210.33
208.23
185.09
143.17
86.51
19.37
-54.09
-129.75
-203.78
-272.78
-334.60
-388.32
-434.36
-473.45
-506.45
-533.77
-554.96
-569.02
-574.73
-571.15
-557.91
-537.36
-510.90
-479.61
-444.36
-405.66
-363.96
-319.77
-273.87
-227.39
-181.75
-138.17
-97.77
-61.63
-30.31
-4.17
16.72
32.24
42.28
46.69
45.48
38.75
26.59
9.31
-12.61
-38.52
-67.65
-99.15
-132.07
-165.42
-198.25
-229.71
-259.13
-285.93
-309.75
-330.29
-347.64
-361.80
-372.87
-381.01
-386.34
-389.00
-388.91
-386.03
-379.93
-370.11
-355.86
-336.34
-310.64
-277.76
-236.76
-186.75
-127.16
-57.75
21.15
108.58
202.90
301.76
402.38
501.49
595.80
682.04
757.29
819.20
865.96
896.51
910.37
907.95
890.17
858.81
816.12
764.70
707.19
646.01
583.27
520.48
458.71
398.55
340.54
285.15
232.88
184.34
139.99
100.30
65.26
35.05
9.54
-11.12
-26.50
-35.97
-38.25
-32.37
-17.36
6.25
36.57
69.88
101.61
127.47
144.26
151.25
149.06
140.00
126.36
110.60
94.77
80.50
69.09
60.67
54.79
49.86
44.55
38.02
30.70
23.90
18.68
15.78
14.08
12.37
8.96
3.67
-2.54
-8.07
-11.23
-12.11
-11.54
-11.73
-13.86
-18.24
-23.31
-26.73
-27.13
-24.04
-19.54
-15.92
-15.65
-19.17
-25.29
-31.83
-36.45
-38.78
-39.27
-39.86
-41.36
-43.67
-45.04
-43.38
-38.25
-30.49
-23.26
-19.11
-19.65
-23.64
-28.10
-29.91
-27.04
-20.57
-12.95
-7.82
-6.94
-10.34
-15.65
-19.79
-21.02
-18.88
-15.46
-12.76
-12.56
-14.36
-16.32
-16.42
-13.40
-8.48
-3.67
-1.68
-3.22
-7.47
-11.69
-12.91
-9.95
-3.14
4.58
10.42
12.02
9.54
4.95
0.88
-0.43
0.78
3.04
3.50
0.70
-5.45
-12.82
-18.33
-20.12
-17.55
-12.72
-8.08
-6.14
-7.25
-10.02
-12.34
-12.24
-10.13
-7.44
-6.97
-10.07
-16.63
-24.32
-29.93
-31.54
-28.52
-23.14
-17.92
-15.40
-15.86
-17.82
-19.08
-17.70
-14.15
-9.96
-7.99
-9.60
-14.69
-20.94
-25.20
-25.65
-21.76
-15.82
-10.26
-7.52
-7.80
-9.64
-10.96
-9.98
-7.18
-3.97
-2.94
-5.22
-10.65
-17.06
-21.49
-22.27
-18.80
-13.14
-7.49
-4.20
-3.60
-4.47
-4.94
-3.34
-0.11
3.45
4.79
2.84
-2.25
-8.23
-12.13
-12.25
-8.08
-1.87
3.98
6.96
6.75
4.67
2.77
2.98
5.00
7.64
8.34
5.91
0.32
-6.42
-11.48
-13.15
-10.76
-6.23
-1.66
0.68
0.51
-0.97
-1.94
-0.76
2.05
5.10
5.84
3.16
-2.72
-9.53
-14.22
-15.03
-11.43
-5.64
-0.08
2.70
2.33
0.09
-1.93
-1.76
0.38
3.32
4.44
2.37
-3.15
-10.30
-16.23
-19.06
-17.78
-14.00
-9.66
-7.06
-6.67
-7.46
-7.70
-5.72
-1.93
2.39
4.64
3.62
-0.62
-5.96
-9.41
-9.25
-4.95
1.27
7.03
9.89
9.57
7.47
5.64
5.96
8.02
10.52
10.88
7.97
1.95
-4.95
-9.73
-10.74
-7.49
-2.19
2.82
5.13
4.48
2.16
0.12
0.14
1.86
4.11
4.48
1.96
-3.37
-9.46
-13.56
-14.10
-10.58
-5.07
0.19
2.83
2.52
0.45
-1.42
-1.23
0.80
3.61
4.78
3.18
-1.29
-6.82
-10.78
-11.69
-8.99
-4.62
-0.64
0.74
-0.68
-3.63
-6.12
-6.24
-4.16
-0.92
1.02
0.39
-3.10
-7.74
-11.01
-11.33
-8.01
-2.86
2.09
4.58
4.27
2.29
0.49
0.75
2.88
5.86
7.30
6.01
1.84
-3.43
-7.18
-7.86
-4.89
-0.20
4.10
5.74
4.45
1.46
-1.26
-1.78
-0.23
2.47
3.97
3.09
-0.46
-5.09
-8.40
-8.97
-6.20
-1.94
1.84
2.95
1.18
-2.18
-5.02
-5.26
-2.95
0.91
3.71
3.97
1.17
-3.17
-6.53
-7.28
-4.65
-0.40
3.48
4.76
3.12
-0.22
-3.20
-3.82
-2.07
1.10
3.28
3.11
0.20
-3.91
-6.83
-7.08
-4.08
0.34
4.19
5.29
3.46
-0.01
-2.99
-3.43
-1.26
2.62
5.78
6.74
4.80
1.18
-1.97
-3.18
-1.65
1.09
3.32
2.96
-0.22
-5.00
-9.30
-10.94
-9.73
-6.41
-3.37
-2.09
-3.30
-5.81
-7.51
-7.03
-3.73
0.68
4.39
5.29
3.16
-0.77
-4.41
-5.60
-4.14
-0.69
2.43
3.74
2.45
-0.37
-2.65
-3.00
-0.62
2.97
6.04
6.44
3.83
-0.73
-5.18
-7.30
-6.67
-3.74
-0.68
1.07
0.59
-1.24
-2.62
-2.35
0.27
3.72
6.39
6.27
3.19
-1.71
-6.36
-8.57
-8.02
-5.24
-2.46
-1.10
-2.01
-4.24
-5.86
-5.58
-2.65
1.43
4.99
5.93
3.92
-0.04
-3.99
-5.75
-4.92
-1.92
1.11
2.75
2.10
0.07
-1.51
-1.37
1.22
4.73
7.49
7.39
4.17
-1.10
-6.28
-9.01
-8.67
-5.50
-1.55
1.68
3.03
2.96
2.83
3.54
5.71
8.03
9.22
7.69
3.54
-1.94
-6.65
-8.48
-7.17
-3.34
0.67
3.31
3.54
2.15
0.89
1.02
3.28
6.31
8.57
8.11
4.71
-0.64
-5.92
-8.94
-9.18
-6.88
-4.02
-1.96
-1.71
-2.63
-3.16
-2.26
0.69
4.21
6.68
6.12
2.36
-3.43
-8.97
-11.84
-11.38
-7.92
-3.66
-0.19
1.25
1.18
1.06
1.95
4.52
7.46
9.40
8.58
4.93
-0.55
-5.87
-8.92
-9.15
-6.69
-3.37
-0.46
0.95
1.28
1.67
2.89
5.44
7.96
9.15
7.29
2.44
-4.25
-10.53
-13.99
-13.89
-10.36
-5.49
-0.94
1.82
2.97
3.65
4.75
6.98
9.18
10.17
8.31
3.65
-2.75
-8.79
-12.19
-12.32
-9.30
-5.13
-1.35
0.67
1.23
1.59
2.85
5.78
9.17
11.60
11.02
7.13
0.82
-5.62
-9.58
-10.00
-6.77
-1.91
2.85
5.88
7.20
7.88
8.88
10.92
12.83
13.30
10.59
4.74
-3.04
-10.25
-14.27
-14.25
-10.39
-5.06
-0.24
2.32
2.76
2.39
2.54
4.25
6.60
8.33
7.50
3.71
-2.35
-8.66
-12.76
-13.53
-10.68
-6.01
-1.21
1.97
3.37
3.95
4.79
6.89
9.36
11.00
9.83
5.45
-1.43
-8.57
-13.27
-14.28
-11.32
-6.42
-1.47
1.61
2.69
2.88
3.47
5.55
8.21
10.08
9.01
4.48
-2.80
-10.42
-15.51
-16.63
-13.44
-8.06
-2.62
0.78
1.94
2.06
2.66
5.05
8.42
11.36
11.52
8.19
1.91
-4.96
-9.55
-10.39
-7.17
-2.04
2.85
5.39
5.45
4.32
3.68
4.94
7.38
9.60
9.21
5.37
-1.47
-8.93
-14.05
-15.23
-12.06
-6.72
-1.48
1.37
1.64
0.69
0.36
2.25
5.77
9.50
10.87
8.83
3.56
-2.77
-7.25
-8.29
-5.40
-0.66
3.73
5.53
4.65
2.54
1.25
2.55
5.91
9.82
11.53
9.72
4.44
-2.19
-7.19
-8.78
-6.36
-1.93
2.28
3.97
2.85
0.22
-1.98
-1.89
0.29
3.50
5.36
4.63
1.06
-3.78
-7.42
-8.38
-5.94
-1.80
2.12
3.61
2.38
-0.45
-2.89
-2.99
-0.85
2.47
4.44
3.63
-0.31
-5.62
-9.60
-10.53
-7.71
-3.08
1.15
2.52
0.71
-3.04
-6.53
-7.59
-6.12
-2.95
-0.45
0.01
-2.11
-5.50
-7.95
-8.09
-5.28
-1.21
2.33
3.24
1.31
-2.29
-5.51
-6.25
-4.31
-0.41
3.10
4.73
3.66
0.95
-1.34
-1.77
0.48
3.93
6.90
7.29
4.77
0.42
-3.78
-5.69
-4.97
-2.14
0.63
1.96
1.05
-1.12
-2.65
-2.31
0.53
4.24
7.03
6.80
3.38
-1.92
-6.82
-8.93
-7.87
-4.28
-0.57
1.62
1.31
-0.58
-2.09
-1.85
0.92
4.73
7.87
8.28
5.63
0.97
-3.66
-6.06
-5.78
-3.22
-0.48
1.04
0.39
-1.59
-3.15
-3.08
-0.65
2.66
5.26
5.14
2.07
-2.86
-7.58
-9.83
-9.14
-5.87
-2.21
0.38
0.84
-0.12
-0.81
-0.06
2.84
6.47
9.24
9.13
5.89
0.54
-4.79
-7.75
-7.66
-4.68
-0.83
2.41
3.80
3.75
3.55
4.16
6.26
8.63
10.01
8.74
4.79
-0.79
-5.98
-8.66
-8.38
-5.39
-1.71
1.29
2.50
2.45
2.51
3.61
6.34
9.27
10.91
9.41
4.70
-2.06
-8.60
-12.48
-12.93
-10.11
-6.02
-2.23
-0.04
0.81
1.48
2.76
5.17
7.39
8.18
5.96
0.92
-5.71
-11.71
-14.84
-14.60
-11.31
-7.10
-3.51
-1.75
-1.37
-0.97
0.41
3.41
6.62
8.57
7.37
2.94
-3.55
-9.80
-13.30
-13.27
-9.87
-5.20
-0.93
1.51
2.40
2.93
4.07
6.54
9.19
10.81
9.77
6.02
0.54
-4.69
-7.49
-7.26
-4.11
0.05
3.76
5.72
6.21
6.43
7.29
9.51
11.83
12.93
10.96
5.78
-1.53
-8.65
-13.00
-13.64
-10.62
-6.04
-1.73
0.72
1.43
1.65
2.48
4.78
7.44
9.10
7.88
3.60
-2.70
-8.75
-12.04
-11.74
-8.00
-3.01
1.44
3.83
4.41
4.51
5.30
7.63
10.27
11.80
10.26
5.43
-1.62
-8.53
-12.63
-12.94
-9.53
-4.56
0.08
2.71
3.49
3.66
4.36
6.42
8.66
9.64
7.47
2.05
-5.40
-12.39
-16.24
-16.07
-12.10
-6.69
-1.75
1.06
1.98
2.36
3.40
5.94
8.79
10.54
9.26
4.75
-1.98
-8.60
-12.55
-12.86
-9.54
-4.70
-0.15
2.45
3.22
3.41
4.25
6.72
9.77
12.03
11.42
7.53
1.17
-5.41
-9.57
-10.22
-7.23
-2.67
1.64
3.96
4.38
4.09
4.36
6.20
8.63
10.31
9.18
4.82
-2.03
-9.14
-13.85
-14.98
-12.30
-7.77
-3.16
-0.24
0.94
1.44
2.32
4.51
7.00
8.53
7.19
2.74
-3.93
-10.52
-14.41
-14.51
-10.75
-5.32
-0.15
2.92
3.95
4.23
5.17
7.82
11.16
13.64
13.02
8.75
1.65
-5.83
-10.81
-11.92
-8.96
-4.10
0.58
3.08
3.36
2.73
2.66
4.38
6.98
8.96
8.02
3.55
-3.71
-11.25
-16.07
-16.78
-13.20
-7.63
-2.32
0.62
1.18
0.74
0.97
3.24
6.69
9.78
10.10
6.85
0.57
-6.42
-11.25
-12.46
-9.69
-5.02
-0.43
2.10
2.51
2.07
2.27
4.34
7.40
9.98
9.80
6.17
-0.30
-7.25
-11.79
-12.44
-8.84
-3.09
2.64
6.21
7.40
7.42
7.86
10.09
13.34
16.12
16.01
12.18
5.17
-2.54
-7.83
-9.10
-6.00
-0.87
3.88
5.91
5.08
2.86
1.21
1.83
4.09
6.54
6.60
3.31
-2.96
-9.86
-14.39
-15.01
-11.37
-5.76
-0.52
2.08
1.89
0.36
-0.57
0.72
3.60
6.55
6.95
3.75
-2.66
-9.88
-14.78
-15.67
-12.17
-6.58
-1.38
1.04
0.50
-1.56
-3.09
-2.32
0.22
3.08
3.66
0.88
-5.02
-11.79
-16.42
-17.22
-13.66
-7.83
-1.96
1.64
2.69
2.40
2.52
4.61
8.06
11.47
12.31
9.53
3.33
-4.03
-9.49
-11.23
-8.59
-3.63
1.35
3.83
3.40
1.24
-0.69
-0.48
1.61
4.40
5.38
3.30
-1.87
-8.13
-12.62
-13.64
-10.52
-5.25
0.01
2.95
3.31
2.38
2.02
3.84
7.21
10.61
11.35
8.37
2.00
-5.26
-10.18
-10.92
-6.95
-0.58
5.68
9.22
9.63
8.14
6.74
7.30
9.53
12.25
13.00
10.63
5.20
-1.22
-5.80
-6.86
-3.86
1.14
5.89
8.08
7.50
5.49
4.08
4.99
7.71
10.73
11.32
8.29
1.83
-5.70
-11.11
-12.55
-9.49
-4.17
0.89
3.14
2.26
-0.39
-2.69
-2.66
-0.58
2.30
3.40
1.46
-3.56
-9.65
-13.94
-14.67
-11.16
-5.31
0.71
4.51
5.64
5.16
4.81
6.21
8.93
11.72
12.11
9.05
2.73
-4.65
-10.03
-11.63
-8.79
-3.60
1.59
4.24
3.89
1.72
-0.31
-0.29
1.53
4.00
4.61
2.20
-3.24
-9.66
-14.21
-15.20
-12.03
-6.70
-1.40
1.55
1.82
0.55
-0.50
0.30
2.51
4.95
5.25
2.39
-3.49
-10.31
-15.24
-16.60
-13.81
-8.89
-4.07
-1.80
-2.47
-4.88
-7.03
-6.94
-4.72
-1.35
0.75
0.36
-2.77
-6.96
-9.66
-9.37
-5.41
0.38
6.01
9.21
9.59
8.20
6.87
7.42
9.72
12.83
14.40
13.22
9.01
3.40
-1.02
-2.67
-0.77
2.91
6.40
7.45
5.76
2.55
-0.20
-0.49
1.55
4.88
6.97
6.45
3.00
-1.72
-5.14
-5.70
-2.76
1.82
6.01
7.60
6.34
3.46
0.91
0.58
2.29
5.08
6.53
5.41
1.40
-3.88
-7.93
-9.14
-6.79
-2.63
1.32
2.74
1.20
-2.21
-5.52
-6.69
-5.59
-3.03
-1.32
-1.76
-4.85
-9.17
-12.38
-12.99
-10.23
-5.70
-1.20
1.10
0.81
-1.16
-3.06
-3.03
-1.02
2.28
4.71
5.03
2.73
-0.90
-3.65
-4.06
-1.32
3.02
7.19
8.99
7.96
5.04
2.02
0.89
1.79
4.06
5.55
5.08
2.19
-1.77
-4.61
-5.00
-2.32
1.65
5.07
5.80
3.65
-0.16
-3.60
-4.70
-3.45
-0.74
1.06
0.61
-2.51
-6.79
-9.83
-10.07
-6.80
-1.82
2.85
4.84
3.70
0.47
-2.85
-4.11
-3.01
-0.08
2.55
3.55
2.25
-0.31
-2.21
-2.22
0.31
3.83
6.69
6.89
4.24
-0.17
-4.33
-6.19
-5.53
-2.94
-0.64
-0.00
-1.79
-4.95
-7.45
-7.91
-5.50
-1.67
1.91
3.13
1.57
-1.87
-5.35
-6.79
-5.78
-2.68
0.54
2.59
2.61
1.39
0.56
1.17
3.89
7.28
9.93
10.00
7.32
2.90
-1.39
-3.56
-3.30
-0.99
1.34
2.43
1.45
-0.75
-2.39
-2.23
0.55
4.54
8.12
9.14
7.09
2.78
-1.88
-4.65
-4.93
-2.94
-0.67
0.49
-0.43
-2.66
-4.45
-4.59
-2.28
1.08
3.99
4.45
2.19
-1.91
-5.95
-7.88
-7.25
-4.36
-1.16
1.05
1.33
0.38
-0.21
0.66
3.71
7.53
10.55
10.74
7.76
2.61
-2.63
-5.59
-5.65
-3.07
0.04
2.12
2.06
0.52
-0.82
-0.74
1.59
4.86
7.62
7.93
5.46
1.06
-3.47
-6.13
-6.45
-4.64
-2.51
-1.21
-1.62
-3.01
-3.85
-3.13
-0.25
3.36
6.10
5.97
2.68
-2.74
-8.14
-11.16
-11.12
-8.25
-4.63
-1.80
-0.94
-1.47
-1.88
-1.09
1.54
4.62
6.69
5.91
2.22
-3.26
-8.45
-11.14
-10.84
-7.87
-4.25
-1.38
-0.32
-0.47
-0.38
0.92
4.03
7.50
9.84
9.18
5.41
-0.28
-5.70
-8.46
-7.92
-4.36
0.14
4.01
6.00
6.54
6.94
8.11
10.68
13.37
14.94
13.80
10.03
4.71
-0.19
-2.69
-2.50
-0.03
2.68
4.34
4.03
2.52
1.42
1.82
4.40
7.74
10.28
10.02
6.69
1.29
-4.11
-7.19
-7.34
-4.86
-1.91
-0.08
-0.57
-2.73
-4.83
-5.49
-3.79
-1.04
1.13
0.45
-3.70
-10.65
-18.43
-24.56
-28.02
-28.49
-27.50
-26.21
-25.67
-25.51
-24.52
-21.90
-17.12
-11.52
-6.37
-3.38
-2.62
-3.09
-2.98
-0.43
4.66
11.55
17.85
21.87
22.46
20.33
17.36
15.08
14.66
15.06
14.88
12.09
6.34
-1.38
-8.88
-13.69
-15.13
-13.43
-10.67
-8.23
-6.97
-6.09
-4.07
-0.19
5.64
11.52
15.83
17.02
15.49
12.79
10.99
11.83
15.10
19.76
23.36
24.40
22.03
17.28
12.19
8.34
6.91
6.83
6.76
4.71
0.34
-5.50
-10.94
-13.87
-13.90
-11.43
-8.54
-6.65
-6.69
-7.86
-8.44
-7.28
-3.75
0.65
4.27
5.08
2.83
-1.44
-5.64
-7.51
-6.53
-3.05
0.75
3.32
3.55
2.07
0.58
0.33
2.25
5.13
7.60
7.76
5.28
0.96
-3.42
-5.85
-5.95
-3.97
-1.85
-0.82
-1.78
-3.96
-5.70
-5.82
-3.52
-0.10
2.96
3.65
1.61
-2.33
-6.29
-8.15
-7.40
-4.32
-0.89
1.54
1.99
1.13
0.54
1.28
4.03
7.43
10.09
10.22
7.70
3.58
-0.25
-1.82
-0.91
1.94
4.56
5.59
4.27
1.65
-0.32
-0.27
2.53
6.50
9.79
10.13
7.10
1.76
-3.71
-6.86
-7.05
-4.62
-1.72
0.10
-0.24
-2.05
-3.61
-3.72
-1.55
1.60
4.28
4.58
2.24
-1.86
-5.87
-7.78
-7.24
-4.66
-2.15
-1.12
-2.44
-5.20
-7.42
-7.66
-5.00
-0.89
2.88
4.00
1.94
-2.32
-6.67
-8.73
-7.95
-4.79
-1.57
0.14
-0.64
-2.94
-4.75
-4.67
-1.89
2.02
5.33
5.90
3.44
-0.91
-5.09
-6.89
-6.04
-3.14
-0.46
0.58
-0.78
-3.46
-5.41
-5.31
-2.48
1.50
4.85
5.48
3.11
-1.14
-5.21
-6.91
-5.90
-2.75
0.29
1.73
0.70
-1.84
-3.90
-4.13
-1.71
1.89
4.99
5.53
3.22
-0.85
-4.66
-6.09
-4.96
-2.03
0.31
0.58
-1.86
-5.70
-8.59
-8.98
-6.13
-1.73
2.27
3.64
2.03
-1.47
-4.86
-6.07
-4.90
-1.97
0.62
1.65
0.60
-1.36
-2.23
-0.88
3.20
8.22
12.37
13.56
11.60
7.76
4.13
2.85
4.11
7.12
9.49
9.75
7.23
3.20
-0.05
-0.98
1.24
5.01
8.49
9.45
7.51
3.69
-0.05
-1.66
-0.94
1.42
3.24
3.20
0.79
-2.71
-5.16
-5.24
-2.34
1.86
5.58
6.80
5.29
2.18
-0.65
-1.36
-0.02
2.46
3.75
2.60
-1.35
-6.50
-10.31
-11.13
-8.21
-3.35
1.34
3.40
2.32
-0.83
-3.98
-4.93
-3.47
-0.34
2.13
2.52
0.25
-3.37
-6.06
-6.37
-3.54
0.81
4.91
6.65
5.71
3.09
0.57
-0.02
1.27
3.62
4.80
3.62
-0.27
-5.34
-9.14
-10.06
-7.28
-2.46
2.42
4.94
4.52
2.07
-0.56
-1.35
-0.16
2.25
3.59
2.56
-1.26
-6.32
-10.10
-10.99
-8.23
-3.57
0.94
2.98
2.16
-0.42
-2.81
-3.06
-1.27
1.54
2.93
1.61
-2.63
-7.98
-11.73
-12.26
-8.95
-3.80
0.99
3.06
2.14
-0.45
-2.63
-2.49
-0.30
2.67
3.83
1.93
-3.05
-9.05
-13.19
-13.80
-10.32
-4.85
0.32
2.83
2.44
0.46
-1.11
-0.39
2.32
5.84
7.66
6.57
2.47
-2.81
-6.57
-7.22
-4.09
1.00
6.03
8.80
8.95
7.54
6.28
6.81
8.77
11.04
11.26
8.42
2.66
-3.93
-8.50
-9.35
-5.95
-0.35
5.14
8.10
8.17
6.58
5.22
5.83
7.94
10.23
10.17
6.73
0.22
-7.02
-11.93
-12.83
-9.34
-3.78
1.36
3.68
2.96
0.68
-1.09
-0.52
1.94
4.84
5.55
2.87
-3.02
-9.88
-14.71
-15.78
-12.53
-7.04
-1.54
1.69
2.39
1.82
1.74
3.68
6.94
10.04
10.44
7.20
0.77
-6.40
-11.17
-11.88
-8.13
-2.21
3.44
6.48
6.66
5.34
4.31
5.18
7.35
9.48
9.21
5.72
-0.49
-7.19
-11.52
-12.13
-8.76
-3.56
1.39
4.13
4.62
4.20
4.34
6.26
9.06
11.30
10.74
6.78
0.15
-6.78
-11.16
-11.69
-8.22
-3.00
1.79
4.13
4.00
2.78
2.07
3.20
5.37
7.16
6.37
2.37
-4.11
-10.82
-15.02
-15.51
-12.16
-7.11
-2.27
0.61
1.62
2.01
3.01
5.51
8.38
10.17
8.90
4.32
-2.50
-9.14
-12.94
-12.93
-9.23
-4.05
0.72
3.45
4.32
4.58
5.35
7.48
9.89
11.32
9.97
5.67
-0.65
-6.88
-10.70
-11.30
-8.70
-4.79
-1.05
1.20
2.22
3.18
4.93
8.07
11.30
13.25
12.15
7.93
1.71
-4.32
-7.79
-7.97
-5.07
-1.15
2.18
3.59
3.43
3.02
3.39
5.33
7.67
9.19
8.19
4.53
-0.81
-5.88
-8.59
-8.52
-6.00
-3.10
-1.27
-1.52
-3.13
-4.39
-4.05
-1.28
2.59
6.02
6.93
4.94
0.88
-3.34
-5.58
-5.36
-2.96
-0.38
1.06
0.48
-1.34
-2.69
-2.44
0.05
3.32
5.81
5.56
2.39
-2.62
-7.43
-9.87
-9.52
-6.81
-3.90
-2.27
-2.89
-4.97
-6.69
-6.73
-4.22
-0.48
2.94
3.99
2.29
-1.25
-4.78
-6.24
-5.36
-2.68
-0.38
0.18
-1.69
-4.83
-7.10
-7.04
-3.85
0.94
5.56
7.79
7.15
4.52
1.70
0.68
1.69
4.16
5.96
5.81
3.11
-0.90
-4.06
-4.88
-2.57
1.33
5.05
6.37
4.84
1.40
-2.13
-3.74
-3.22
-1.18
0.24
-0.21
-3.02
-6.88
-9.52
-9.51
-6.12
-1.01
3.94
6.47
6.16
3.97
1.70
1.19
2.36
4.29
4.64
2.26
-2.96
-9.18
-13.63
-14.63
-11.47
-6.07
-0.59
2.53
2.84
1.35
-0.16
0.09
1.89
4.23
4.82
2.64
-2.27
-7.94
-11.66
-11.86
-7.98
-2.04
3.75
7.05
7.50
6.29
5.26
6.20
8.74
11.63
12.35
9.74
3.84
-3.28
-8.70
-10.68
-8.53
-4.13
0.41
2.87
2.96
1.84
1.21
2.58
5.35
8.12
8.46
5.42
-0.62
-7.36
-11.87
-12.59
-9.16
-3.82
1.16
3.59
3.39
2.02
1.33
2.87
5.88
8.81
9.10
5.79
-0.68
-7.90
-12.81
-13.79
-10.42
-4.89
0.56
3.69
4.29
3.59
3.20
4.54
6.91
9.03
8.66
5.16
-0.88
-7.19
-11.00
-11.09
-7.33
-2.00
2.79
5.08
4.93
3.77
3.23
4.61
7.00
8.92
8.11
3.93
-2.85
-9.83
-14.13
-14.44
-10.60
-4.87
0.64
3.92
4.95
4.99
5.43
7.41
9.96
11.68
10.46
5.89
-1.17
-8.30
-12.72
-13.24
-9.72
-4.32
1.00
4.36
5.70
6.15
6.91
8.93
11.23
12.50
10.81
5.87
-1.39
-8.64
-13.20
-13.95
-10.82
-5.92
-1.16
1.65
2.51
2.60
3.10
5.05
7.50
9.20
8.24
4.35
-1.59
-7.43
-10.70
-10.59
-7.18
-2.60
1.48
3.62
4.17
4.48
5.59
8.18
10.89
12.21
10.30
5.17
-1.83
-8.17
-11.30
-10.55
-6.43
-1.47
2.38
3.79
3.51
3.49
5.35
9.87
15.33
19.39
19.25
14.31
5.98
-2.39
-6.99
-5.95
0.67
9.81
18.05
22.29
21.96
18.86
15.79
15.54
18.67
24.06
28.79
30.38
27.13
18.69
5.54
-11.83
-32.03
-52.90
-69.79
-77.38
-70.73
-48.75
-16.13
18.11
42.66
49.70
37.07
10.07
-21.75
-48.13
-61.76
-60.71
-46.97
-25.73
-1.98
20.05
38.18
51.71
60.26
63.67
60.93
51.51
35.28
14.17
-8.49
-28.58
-42.61
-49.57
-50.49
-48.71
-46.98
-47.15
-48.48
-48.88
-46.68
-41.19
-34.37
-28.60
-26.32
-27.62
-30.70
-32.44
-29.86
-22.29
-10.56
2.42
14.29
23.39
29.95
35.18
39.82
44.19
46.81
46.53
42.31
35.09
27.01
20.74
18.55
20.41
25.08
29.47
31.23
28.84
23.00
15.94
9.82
6.31
4.52
2.62
-2.16
-10.75
-22.16
-33.38
-40.68
-42.32
-38.36
-31.82
-25.84
-23.00
-23.33
-24.94
-25.62
-23.48
-18.94
-13.06
-7.56
-2.89
1.18
5.18
9.17
11.70
11.48
7.32
0.50
-6.27
-9.05
-4.98
5.82
20.71
34.43
42.56
42.30
34.54
22.43
10.08
0.85
-4.59
-7.02
-8.82
-11.23
-14.56
-17.46
-18.30
-16.63
-12.99
-9.75
-8.83
-11.52
-16.94
-22.92
-26.94
-27.33
-24.73
-20.88
-18.56
-19.13
-22.42
-26.15
-27.34
-24.07
-15.83
-4.61
7.25
17.60
26.46
35.45
46.69
61.24
77.45
92.11
101.31
103.48
100.02
95.11
93.48
97.47
106.14
115.08
119.73
117.14
108.20
96.22
84.77
75.67
67.75
58.67
46.07
29.99
12.40
-3.03
-12.63
-14.36
-7.65
5.73
23.33
42.04
59.24
73.04
82.65
88.39
91.09
91.84
91.01
88.77
84.92
79.04
70.26
57.38
39.58
17.03
-8.06
-32.37
-51.73
-62.76
-63.62
-54.11
-35.47
-8.44
26.83
70.63
121.58
176.36
229.54
274.29
304.34
314.94
303.80
270.52
219.12
154.93
85.42
19.51
-34.22
-70.77
-90.77
-100.06
-107.06
-118.38
-136.16
-157.05
-175.69
-186.60
-187.32
-178.98
-164.62
-147.10
-127.62
-106.51
-84.10
-61.83
-42.05
-27.16
-18.66
-16.26
-17.96
-21.04
-23.55
-24.81
-25.56
-27.40
-32.13
-40.86
-53.09
-67.82
-83.53
-99.21
-114.32
-128.97
-143.68
-159.01
-175.15
-191.72
-207.90
-222.57
-235.05
-244.87
-251.79
-255.68
-256.38
-253.60
-246.87
-235.82
-218.26
-193.57
-162.22
-125.71
-86.24
-46.35
-8.44
25.55
54.29
77.19
93.96
104.92
110.76
112.42
110.94
107.30
102.37
96.80
91.09
85.29
79.44
73.54
67.64
61.84
56.23
50.94
46.06
41.64
37.58
33.76
30.10
26.58
23.19
19.97
16.98
14.27
11.87
9.71
7.76
5.96
4.28
2.72
1.28
-0.01
-1.14
-2.11
-2.93
-3.61
-4.20
-4.69
-5.11
-5.45
-5.72
-5.90
-6.02
-6.05
-6.02
-5.93
-5.78
-5.60
-5.40
-5.19
-4.90
-4.61
-4.32
-4.04
-3.78
-3.53
-3.30
-3.08
-2.88
-2.70
-2.53
-2.38
-2.24
-2.11
-1.99
-1.88
-1.77
-1.67
-1.57
-1.49
-1.42
-1.35
-1.29
-1.23
-1.17
-1.12
-1.06
-1.02
-0.98
-0.94
-0.91
-0.87
-0.84
-0.81
-0.79
-0.76
-0.73
-0.71
-0.69
-0.67
-0.65
-0.64
-0.62
-0.61
-0.59
-0.58
-0.56
-0.55
-0.53
-0.52
-0.50
-0.48
-0.45
-0.42
-0.38
-0.32
-0.26
-0.19
-0.12
-0.03
0.06
0.16
0.26
0.36
0.47
0.58
0.69
0.79
0.92
1.03
1.17
1.30
1.46
1.62
1.81
2.00
2.22
2.47
2.74
3.04
3.37
3.73
4.12
4.56
5.03
5.56
6.13
6.78
7.48
8.26
9.11
10.03
11.05
12.15
13.33
14.61
15.97
17.42
18.97
20.60
22.31
24.09
25.92
27.80
29.74
31.78
33.92
36.18
38.51
40.85
43.00
44.80
46.00
46.36
45.67
43.76
40.49
35.75
29.51
21.80
12.79
2.75
-7.92
-18.74
-29.13
-38.21
-45.78
-51.73
-56.12
-59.15
-61.07
-62.11
-62.42
-61.99
-61.07
-59.50
-57.50
-55.40
-53.54
-52.09
-50.86
-49.40
-46.92
-42.96
-36.87
-28.84
-19.48
-9.78
-0.71
6.97
12.87
17.09
19.69
20.75
19.99
16.97
11.42
3.18
-7.10
-19.59
-33.64
-47.81
-59.70
-66.35
-65.24
-55.55
-39.04
-19.85
-3.11
7.29
9.94
6.18
-0.96
-8.43
-13.84
-16.07
-14.81
-10.12
-2.20
8.16
19.47
29.65
36.77
39.85
39.02
35.50
30.89
26.60
23.40
21.47
20.53
20.12
19.82
19.20
18.05
16.31
14.22
12.10
10.28
8.96
8.15
7.67
7.23
6.59
5.61
4.31
2.84
1.37
0.06
-1.03
-1.95
-2.84
-3.81
-4.95
-6.27
-7.73
-9.25
-10.79
-12.33
-13.90
-15.53
-17.29
-19.14
-21.11
-23.16
-25.31
-27.57
-30.00
-32.64
-35.48
-38.52
-41.62
-44.71
-47.67
-50.51
-53.37
-56.37
-59.57
-62.84
-65.74
-67.61
-67.69
-65.37
-60.34
-52.67
-42.94
-31.46
-18.52
-4.07
12.17
30.40
50.39
71.27
91.57
109.61
124.02
134.27
140.87
145.09
148.41
151.71
154.81
156.50
155.05
149.33
139.18
125.95
111.82
98.88
88.87
82.50
79.96
80.72
83.05
83.47
77.47
61.22
34.00
-0.48
-35.18
-62.95
-80.12
-88.26
-92.84
-99.71
-111.47
-126.27
-139.51
-147.05
-147.87
-144.55
-141.15
-140.59
-143.50
-148.68
-154.65
-160.15
-164.17
-164.81
-158.92
-143.44
-116.31
-78.42
-33.86
11.30
50.88
79.97
96.18
99.71
91.19
72.12
45.94
17.18
-9.54
-31.30
-47.60
-59.69
-68.72
-75.66
-80.55
-83.90
-83.96
-77.28
-60.73
-33.73
0.69
36.02
64.02
79.06
82.16
80.42
86.01
112.05
164.52
236.60
316.14
385.31
428.78
439.27
410.86
349.02
266.28
178.04
98.08
33.42
-11.64
-39.23
-56.18
-69.42
-81.01
-90.12
-95.76
-98.70
-100.94
-104.29
-109.13
-113.71
-115.07
-110.30
-99.23
-84.61
-70.66
-60.78
-56.18
-55.97
-57.64
-58.27
-55.35
-48.41
-39.01
-29.71
-22.67
-18.73
-17.59
-17.89
-17.99
-16.41
-12.78
-7.81
-2.74
1.29
3.77
4.78
4.87
4.80
5.28
6.55
8.44
10.49
12.26
13.50
14.19
14.44
14.46
14.45
14.53
14.73
15.00
15.28
15.49
15.60
15.53
15.19
14.53
13.59
12.41
11.04
9.42
7.13
4.08
0.21
-4.56
-10.17
-16.44
-23.15
-30.16
-37.51
-45.41
-54.20
-64.30
-75.99
-89.25
-103.72
-118.85
-134.22
-149.74
-165.80
-183.18
-202.73
-224.94
-249.50
-275.13
-300.03
-322.29
-340.76
-354.88
-364.75
-370.61
-371.84
-366.96
-352.90
-326.29
-284.73
-228.17
-159.13
-82.27
-2.78
75.24
149.90
221.74
292.31
362.81
432.09
497.74
556.26
603.74
635.97
648.83
639.02
605.36
550.30
479.60
401.43
323.49
249.91
181.15
114.34
48.36
-14.20
-64.27
-91.41
-88.67
-57.61
-9.88
36.60
63.94
61.67
29.86
-21.22
-76.21
-120.40
-144.26
-145.86
-130.01
-106.18
-84.67
-73.36
-75.02
-86.60
-100.73
-109.18
-106.20
-90.08
-62.83
-28.10
10.26
48.49
82.09
105.47
113.44
103.32
76.81
39.49
-1.09
-37.68
-65.03
-79.61
-79.68
-64.96
-37.68
-3.08
31.75
59.88
77.61
85.46
87.39
88.18
90.89
95.76
100.68
103.16
101.77
96.82
89.59
81.08
71.25
59.03
42.69
21.05
-5.85
-36.71
-69.23
-101.04
-130.42
-156.80
-180.68
-203.22
-225.48
-247.79
-269.83
-290.43
-307.98
-321.20
-328.94
-330.84
-327.41
-318.97
-305.69
-287.68
-265.15
-238.58
-209.22
-178.79
-149.60
-123.86
-103.27
-88.50
-79.02
-73.24
-68.88
-63.82
-56.54
-46.75
-35.16
-23.12
-11.89
-2.23
5.74
12.52
18.39
23.37
26.56
27.05
24.28
18.43
11.04
4.43
1.71
5.99
20.37
47.18
87.04
137.78
193.53
245.70
285.13
305.64
306.28
291.93
270.99
252.18
241.56
240.94
249.02
263.07
280.85
300.79
321.37
340.47
354.92
361.60
358.15
344.28
321.31
291.92
259.02
224.61
189.73
154.35
118.32
81.64
45.10
10.12
-21.61
-48.78
-70.86
-88.18
-101.74
-112.64
-121.80
-129.56
-135.79
-140.10
-142.18
-142.06
-140.08
-136.86
-133.01
-129.00
-125.00
-120.94
-116.64
-111.94
-106.79
-101.30
-95.64
-90.03
-84.60
-79.42
-74.47
-69.73
-65.17
-60.78
-56.55
-52.51
-48.67
-45.04
-41.60
-38.35
-35.27
-32.39
-29.68
-27.16
-24.74
-22.47
-20.36
-18.43
-16.67
-15.08
-13.65
-12.36
-11.21
-10.18
-9.27
-8.47
-7.76
-7.13
-6.56
-6.05
-5.59
-5.18
-4.81
-4.48
-4.19
-3.92
-3.68
-3.47
-3.26
-3.08
-2.90
-2.74
-2.60
-2.47
-2.35
-2.24
-2.14
-2.04
-1.95
-1.86
-1.79
-1.71
-1.64
-1.58
-1.52
-1.47
-1.41
-1.37
-1.31
-1.27
-1.23
-1.19
-1.15
-1.12
-1.08
-1.05
-1.02
-0.99
-0.96
-0.93
-0.90
-0.88
-0.85
-0.83
-0.80
-0.78
-0.76
-0.74
-0.72
-0.70
-0.68
-0.67
-0.66
-0.65
-0.66
-0.66
-0.67
-0.67
-0.67
-0.67
-0.64
-0.62
-0.57
-0.51
-0.43
-0.35
-0.25
-0.15
-0.04
0.06
0.15
0.24
0.34
0.42
0.49
0.58
0.66
0.75
0.85
0.95
1.05
1.16
1.28
1.42
1.57
1.75
1.95
2.20
2.47
2.78
3.14
3.54
3.99
4.49
5.04
5.64
6.31
7.03
7.82
8.68
9.60
10.62
11.71
12.89
14.16
15.54
16.97
18.46
20.03
21.70
23.54
25.63
28.10
31.15
34.97
39.59
45.05
51.18
57.66
63.97
69.39
73.12
74.40
72.62
67.41
58.78
47.04
32.83
17.21
1.17
-14.25
-28.11
-39.74
-48.73
-54.93
-58.48
-60.00
-59.70
-58.18
-55.97
-53.45
-50.98
-48.68
-46.61
-44.65
-42.77
-40.77
-38.85
-37.18
-35.87
-35.16
-35.13
-35.79
-36.74
-37.64
-38.04
-37.79
-36.94
-34.83
-31.10
-25.36
-17.51
-7.57
3.87
15.73
26.35
34.04
37.47
36.01
30.56
21.84
11.50
1.17
-8.04
-16.00
-23.20
-30.31
-37.75
-45.25
-52.04
-57.12
-60.13
-60.74
-59.77
-58.65
-58.95
-62.18
-69.16
-79.86
-92.16
-102.43
-105.83
-98.62
-79.74
-51.96
-20.97
6.97
27.17
37.98
40.37
36.80
29.84
21.57
13.74
8.01
5.69
6.93
10.97
16.39
21.66
26.17
30.38
35.42
42.13
50.11
57.98
65.02
72.26
81.99
95.99
113.15
128.83
136.09
129.08
106.14
71.21
32.70
-0.16
-20.71
-26.49
-19.33
-3.43
15.88
33.58
45.96
50.52
47.99
40.51
30.27
19.10
7.85
-2.93
-11.80
-17.04
-17.67
-14.53
-10.20
-8.33
-10.89
-17.21
-24.81
-31.04
-34.77
-37.03
-39.65
-43.98
-49.95
-56.28
-61.86
-66.38
-70.27
-73.89
-77.64
-81.19
-84.32
-87.04
-89.45
-92.32
-96.31
-101.64
-108.14
-115.20
-121.68
-126.32
-128.40
-126.47
-119.69
-107.71
-90.63
-68.90
-43.30
-14.79
15.43
45.52
73.87
98.98
119.53
134.59
143.73
147.18
145.86
141.18
134.83
128.33
122.62
117.89
113.64
109.08
103.58
97.13
90.24
84.47
80.54
78.87
79.12
80.18
80.70
79.74
77.07
73.39
69.85
67.54
67.33
69.66
74.56
81.44
88.38
92.18
88.95
75.77
52.34
22.05
-8.98
-34.27
-49.45
-53.94
-50.36
-42.61
-33.90
-25.82
-18.46
-11.78
-6.41
-3.47
-3.99
-7.69
-12.90
-17.40
-19.54
-19.07
-17.56
-17.65
-21.79
-31.33
-45.72
-62.78
-79.47
-93.57
-104.06
-111.31
-116.57
-121.26
-126.74
-133.88
-142.77
-152.24
-159.40
-160.18
-150.95
-130.80
-101.67
-68.87
-38.81
-16.18
-2.45
4.64
8.89
13.43
19.25
25.19
29.31
30.36
28.67
25.48
22.15
19.20
16.29
12.86
8.57
3.86
-0.19
-2.26
-1.49
1.95
6.83
11.25
13.41
12.22
7.60
0.56
-7.11
-13.38
-16.67
-16.25
-12.33
-5.81
2.12
10.30
17.79
24.12
28.93
31.91
32.99
31.83
28.09
21.75
13.34
4.01
-4.62
-11.03
-14.31
-13.94
-10.57
-5.61
-0.58
3.54
6.60
9.18
12.06
15.64
20.59
27.12
35.20
44.71
55.24
65.95
75.43
82.70
83.16
76.61
65.76
54.75
47.02
43.45
42.32
40.88
37.75
34.20
34.13
40.52
52.95
67.22
77.29
78.56
70.19
55.32
38.90
25.32
15.69
7.76
-2.28
-17.68
-39.38
-65.69
-93.11
-117.84
-136.44
-146.56
-146.79
-136.44
-115.62
-85.83
-50.37
-14.44
15.78
35.20
41.65
36.88
25.92
15.18
10.13
13.96
27.43
49.57
78.81
113.39
151.40
190.72
229.14
264.54
295.24
319.99
338.07
349.30
354.12
353.61
349.24
342.06
331.91
317.01
294.72
262.53
219.45
166.56
106.68
43.41
-20.23
-82.68
-143.69
-203.65
-263.13
-322.81
-383.67
-446.92
-512.78
-579.40
-642.01
-693.70
-727.34
-738.39
-726.51
-695.41
-650.79
-597.57
-538.09
-472.09
-398.31
-316.31
-227.52
-134.77
-40.92
52.19
144.39
236.49
329.26
422.17
512.87
597.33
670.84
728.98
768.46
787.48
785.94
765.17
727.77
677.15
617.43
553.25
489.52
430.77
380.56
340.91
311.72
290.70
273.73
255.98
233.20
203.02
165.39
121.96
75.21
27.07
-21.81
-71.84
-123.86
-178.48
-235.55
-294.20
-352.86
-408.93
-458.70
-497.73
-521.66
-527.73
-515.84
-488.93
-452.07
-411.53
-373.55
-343.77
-326.78
-325.79
-342.45
-376.20
-423.63
-478.10
-530.26
-569.46
-586.03
-574.06
-533.86
-473.49
-407.20
-351.16
-317.75
-310.91
-324.96
-347.90
-367.13
-374.74
-369.99
-357.54
-343.42
-331.09
-319.94
-306.26
-285.99
-257.06
-219.93
-176.54
-128.52
-76.25
-19.10
43.41
110.45
179.36
245.99
306.11
356.87
397.94
431.40
460.34
486.83
510.20
526.97
532.14
521.85
495.54
456.54
410.98
365.34
324.32
289.75
261.16
237.18
216.90
200.23
187.31
177.69
169.95
162.19
152.97
141.96
129.93
118.25
107.75
98.17
88.26
76.51
62.17
45.73
28.80
13.43
1.18
-7.41
-13.01
-16.85
-20.13
-23.38
-26.23
-27.63
-26.37
-21.67
-13.63
-3.16
8.33
19.43
29.22
37.24
43.48
48.08
51.10
52.54
52.42
50.97
48.61
45.96
43.59
41.86
40.78
40.06
39.31
38.24
36.65
34.52
31.89
28.90
25.72
22.54
19.50
16.73
14.29
12.24
10.63
9.47
8.69
8.11
7.44
6.34
4.62
2.29
-0.45
-3.35
-6.25
-9.13
-12.06
-15.06
-17.96
-20.40
-21.91
-22.08
-20.72
-17.90
-13.93
-9.21
-4.24
0.53
4.65
7.76
9.76
10.79
11.25
11.59
12.11
12.79
13.31
13.16
11.94
9.56
6.23
2.46
-1.13
-4.09
-6.13
-7.21
-7.51
-7.30
-6.99
-6.93
-7.36
-8.26
-9.49
-10.78
-11.89
-12.71
-13.32
-13.96
-14.92
-16.48
-18.69
-21.41
-24.22
-26.56
-27.88
-27.86
-26.51
-24.15
-21.22
-18.16
-15.30
-12.83
-10.88
-9.62
-9.14
-9.41
-10.25
-11.30
-12.16
-12.52
-12.19
-11.11
-9.37
-7.11
-4.59
-2.08
0.24
2.42
4.80
7.84
11.86
16.70
21.70
25.86
28.18
28.09
25.66
21.53
16.53
11.40
6.56
2.06
-2.24
-6.52
-10.88
-15.27
-19.54
-23.46
-26.78
-29.25
-30.61
-30.62
-29.23
-26.61
-23.08
-19.07
-14.90
-10.68
-6.38
-1.98
2.42
6.50
9.85
12.13
13.25
13.42
12.97
12.28
11.55
10.89
10.32
9.89
9.76
10.07
10.91
12.21
13.77
15.22
16.28
16.76
16.64
16.03
15.05
13.79
12.19
9.95
6.62
1.76
-4.92
-13.40
-23.27
-33.86
-44.29
-53.70
-61.30
-66.56
-69.21
-69.27
-67.09
-63.12
-57.89
-51.79
-45.13
-38.12
-31.01
-24.21
-18.15
-13.24
-9.69
-7.52
-6.61
-6.73
-7.67
-9.14
-10.83
-12.32
-13.22
-13.26
-12.47
-11.05
-9.43
-8.00
-7.06
-6.74
-7.01
-7.83
-9.12
-10.80
-12.82
-15.04
-17.38
-19.78
-22.28
-25.00
-28.12
-31.69
-35.59
-39.51
-42.96
-45.41
-46.36
-45.45
-42.46
-37.42
-30.48
-22.01
-12.50
-2.55
7.19
16.19
23.99
30.35
35.10
38.28
40.03
40.68
40.58
40.09
39.45
38.68
37.66
36.16
34.04
31.35
28.33
25.27
22.39
19.75
17.22
14.58
11.63
8.25
4.50
0.51
-3.52
-7.47
-11.27
-14.96
-18.65
-22.50
-26.65
-31.19
-36.02
-40.84
-45.18
-48.45
-50.09
-49.68
-47.04
-42.24
-35.59
-27.63
-18.92
-10.00
-1.24
7.13
15.00
22.30
28.79
34.19
38.27
40.92
42.26
42.65
42.43
41.83
40.90
39.57
37.78
35.60
33.27
31.08
29.28
27.86
26.60
25.12
23.06
20.25
16.78
12.95
9.13
5.52
2.11
-1.37
-5.26
-9.79
-14.99
-20.71
-26.71
-32.77
-38.67
-44.18
-48.88
-52.22
-53.58
-52.50
-48.82
-42.78
-34.92
-25.95
-16.55
-7.22
1.64
9.75
16.86
22.70
27.13
30.17
32.02
33.01
33.51
33.70
33.54
32.76
31.09
28.46
25.18
21.87
19.28
17.94
17.92
18.79
19.72
19.88
18.57
15.56
11.03
5.53
-0.25
-5.60
-10.07
-13.52
-16.27
-18.84
-21.84
-25.64
-30.36
-35.82
-41.65
-47.42
-52.44
-55.97
-57.12
-55.17
-49.85
-41.55
-31.24
-20.13
-9.23
1.03
10.69
19.99
28.97
37.27
44.21
49.22
52.13
53.26
53.21
52.56
51.56
50.20
48.26
45.66
42.53
39.16
35.80
32.61
29.58
26.62
23.67
20.69
17.66
14.51
11.08
7.16
2.57
-2.73
-8.65
-14.90
-21.17
-27.18
-32.79
-38.04
-43.09
-48.04
-52.80
-57.05
-60.10
-61.18
-59.50
-54.54
-46.28
-35.25
-22.52
-9.39
2.93
13.65
22.48
29.53
35.06
39.25
42.16
43.88
44.59
44.63
44.31
43.79
42.99
41.64
39.57
36.81
33.68
30.56
27.75
25.41
23.47
21.77
20.10
18.24
16.00
13.22
9.84
5.86
1.34
-3.65
-9.01
-14.61
-20.35
-26.10
-31.77
-37.27
-42.56
-47.52
-51.92
-55.31
-57.15
-56.91
-54.22
-49.02
-41.59
-32.46
-22.33
-11.85
-1.48
8.47
17.78
26.21
33.45
39.19
43.23
45.62
46.65
46.77
46.39
45.75
44.90
43.73
42.16
40.16
37.85
35.32
32.68
29.99
27.25
24.42
21.47
18.33
14.98
11.42
7.66
3.73
-0.31
-4.37
-8.39
-12.35
-16.27
-20.25
-24.38
-28.83
-33.71
-39.03
-44.57
-49.78
-53.85
-55.88
-55.17
-51.44
-44.92
-36.31
-26.47
-16.27
-6.32
2.95
11.27
18.44
24.24
28.62
31.62
33.45
34.35
34.52
34.14
33.32
32.27
31.15
30.09
29.05
27.92
26.47
24.57
22.23
19.60
16.93
14.39
12.03
9.71
7.22
4.34
0.95
-2.90
-7.01
-11.16
-15.17
-18.98
-22.69
-26.47
-30.45
-34.62
-38.68
-42.20
-44.68
-45.66
-44.92
-42.36
-38.08
-32.24
-25.08
-16.93
-8.26
0.36
8.41
15.49
21.44
26.29
30.17
33.11
35.10
36.08
36.06
35.24
33.95
32.52
31.17
29.89
28.53
26.87
24.85
22.52
20.03
17.52
14.99
12.25
9.14
5.52
1.49
-2.70
-6.80
-10.60
-14.12
-17.50
-20.92
-24.53
-28.38
-32.51
-36.88
-41.46
-46.06
-50.37
-53.86
-55.91
-55.90
-53.51
-48.73
-41.90
-33.65
-24.64
-15.41
-6.26
2.67
11.33
19.53
26.99
33.33
38.22
41.47
43.13
43.46
42.84
41.66
40.30
38.99
37.87
36.91
36.00
34.91
33.44
31.46
28.97
26.07
22.98
19.84
16.70
13.47
10.03
6.23
2.10
-2.20
-6.44
-10.35
-13.79
-16.72
-19.30
-21.76
-24.40
-27.45
-31.05
-35.17
-39.56
-43.81
-47.33
-49.49
-49.73
-47.68
-43.26
-36.73
-28.56
-19.42
-9.99
-0.79
7.76
15.40
22.03
27.54
31.87
35.00
36.94
37.74
37.64
36.89
35.83
34.72
33.67
32.62
31.45
29.99
28.12
25.82
23.11
20.04
16.70
13.25
9.89
6.88
4.37
2.32
0.51
-1.45
-3.90
-6.98
-10.61
-14.52
-18.37
-21.91
-25.05
-27.87
-30.59
-33.42
-36.50
-39.78
-42.93
-45.38
-46.42
-45.48
-42.24
-36.87
-29.89
-22.01
-13.90
-6.05
1.27
7.92
13.78
18.70
22.47
24.99
26.32
26.63
26.21
25.31
24.13
22.77
21.27
19.63
17.92
16.20
14.58
13.07
11.67
10.29
8.79
7.08
5.10
2.88
0.48
-2.01
-4.59
-7.24
-9.98
-12.79
-15.69
-18.61
-21.59
-24.68
-28.04
-31.70
-35.64
-39.51
-42.75
-44.67
-44.71
-42.56
-38.29
-32.31
-25.09
-17.13
-8.82
-0.44
7.73
15.32
21.90
27.09
30.66
32.62
33.14
32.57
31.30
29.70
28.06
26.54
25.15
23.87
22.62
21.26
19.78
18.18
16.50
14.81
13.03
11.02
8.61
5.69
2.29
-1.43
-5.18
-8.70
-11.89
-14.82
-17.72
-20.86
-24.40
-28.37
-32.66
-37.06
-41.30
-45.07
-47.99
-49.58
-49.33
-46.80
-41.80
-34.49
-25.41
-15.32
-5.00
4.90
13.94
21.89
28.56
33.81
37.55
39.74
40.55
40.30
39.38
38.12
36.75
35.34
33.87
32.34
30.75
29.10
27.35
25.44
23.24
20.62
17.50
13.88
9.86
5.66
1.49
-2.43
-5.99
-9.18
-12.17
-15.15
-18.33
-21.82
-25.57
-29.40
-33.14
-36.68
-39.97
-43.01
-45.61
-47.38
-47.76
-46.19
-42.37
-36.35
-28.53
-19.53
-9.96
-0.37
8.81
17.18
24.41
30.27
34.68
37.73
39.59
40.44
40.42
39.68
38.41
36.86
35.31
33.89
32.59
31.23
29.58
27.60
25.35
23.05
20.89
18.98
17.25
15.57
13.70
11.42
8.60
5.25
1.49
-2.43
-6.25
-9.82
-13.07
-16.08
-19.08
-22.32
-26.04
-30.33
-35.13
-40.10
-44.73
-48.36
-50.35
-50.29
-48.04
-43.72
-37.68
-30.30
-22.00
-13.18
-4.27
4.28
12.04
18.65
23.84
27.58
29.99
31.36
32.03
32.29
32.30
32.09
31.65
31.00
30.30
29.72
29.35
29.06
28.62
27.75
26.30
24.38
22.17
19.86
17.46
14.80
11.72
8.22
4.50
0.87
-2.38
-5.20
-7.78
-10.47
-13.61
-17.40
-21.87
-26.94
-32.45
-38.14
-43.61
-48.24
-51.30
-52.01
-49.85
-44.76
-37.21
-28.15
-18.69
-9.79
-2.01
4.60
10.34
15.58
20.51
24.99
28.62
30.94
31.70
31.06
29.46
27.49
25.57
23.87
22.33
20.77
19.08
17.24
15.29
13.22
10.91
8.18
4.95
1.25
-2.70
-6.60
-10.29
-13.72
-16.96
-20.18
-23.51
-26.99
-30.63
-34.39
-38.23
-42.10
-45.83
-49.13
-51.58
-52.72
-52.11
-49.46
-44.74
-38.15
-30.08
-21.02
-11.50
-2.00
6.99
14.99
21.49
26.14
28.87
29.91
29.81
29.21
28.62
28.28
28.16
28.01
27.50
26.42
24.56
21.94
18.72
15.36
12.52
10.89
10.85
12.12
13.88
14.87
13.98
10.70
5.36
-0.92
-6.66
-10.57
-12.05
-11.35
-9.61
-8.34
-9.05
-12.66
-19.18
-27.72
-36.82
-44.85
-50.56
-53.31
-53.03
-50.16
-45.33
-39.17
-32.28
-25.12
-18.07
-11.42
-5.37
-0.02
4.63
8.62
12.00
14.72
16.68
17.77
17.96
17.33
16.15
14.77
13.49
12.53
11.85
11.35
10.83
10.16
9.29
8.30
7.21
6.06
4.81
3.39
1.75
-0.12
-2.28
-4.75
-7.62
-10.99
-14.89
-19.25
-23.94
-28.73
-33.47
-38.13
-42.60
-46.66
-49.80
-51.33
-50.63
-47.42
-41.89
-34.69
-26.65
-18.47
-10.52
-2.91
4.41
11.39
17.84
23.47
28.01
31.24
33.19
33.99
33.94
33.34
32.51
31.70
31.10
30.81
30.82
31.05
31.26
31.22
30.69
29.58
27.91
25.87
23.65
21.40
19.13
16.71
14.03
11.03
7.71
4.17
0.45
-3.39
-7.27
-11.08
-14.72
-18.16
-21.44
-24.81
-28.41
-32.35
-36.39
-39.99
-42.39
-42.88
-41.02
-36.77
-30.53
-22.93
-14.68
-6.31
1.79
9.44
16.46
22.65
27.82
31.76
34.42
35.87
36.40
36.31
35.86
35.23
34.47
33.51
32.30
30.79
29.02
27.05
24.95
22.72
20.33
17.75
14.95
11.94
8.76
5.45
2.06
-1.33
-4.65
-7.78
-10.66
-13.28
-15.75
-18.24
-20.91
-23.86
-27.07
-30.45
-33.89
-37.34
-40.71
-43.74
-45.99
-46.86
-45.76
-42.35
-36.68
-29.23
-20.78
-12.15
-3.95
3.44
9.89
15.32
19.61
22.67
24.49
25.19
25.10
24.62
24.12
23.79
23.60
23.34
22.76
21.71
20.14
18.23
16.21
14.29
12.57
10.96
9.26
7.21
4.60
1.40
-2.30
-6.30
-10.37
-14.27
-17.81
-20.91
-23.64
-26.26
-29.04
-32.21
-35.69
-39.17
-42.05
-43.69
-43.60
-41.55
-37.63
-32.13
-25.43
-17.95
-10.06
-2.08
5.69
13.01
19.66
25.42
30.13
33.65
35.93
37.01
37.01
36.12
34.59
32.67
30.62
28.65
26.83
25.18
23.58
21.93
20.17
18.28
16.22
13.92
11.27
8.15
4.58
0.73
-3.11
-6.67
-9.81
-12.66
-15.54
-18.79
-22.67
-27.21
-32.29
-37.56
-42.64
-47.06
-50.38
-52.14
-52.00
-49.81
-45.62
-39.71
-32.53
-24.58
-16.31
-8.04
-0.04
7.48
14.32
20.21
24.94
28.37
30.51
31.56
31.78
31.49
30.93
30.24
29.49
28.68
27.80
26.75
25.52
24.09
22.47
20.70
18.85
16.89
14.76
12.37
9.62
6.50
3.05
-0.62
-4.42
-8.26
-12.12
-15.97
-19.75
-23.50
-27.29
-31.22
-35.42
-39.83
-44.24
-48.18
-51.01
-52.08
-50.94
-47.42
-41.74
-34.38
-25.91
-16.91
-7.77
1.21
9.83
17.82
24.86
30.56
34.62
36.98
37.82
37.60
36.87
36.14
35.72
35.71
35.99
36.31
36.45
36.18
35.37
34.01
32.12
29.80
27.14
24.28
21.24
18.09
14.80
11.40
7.93
4.44
0.89
-2.80
-6.75
-11.02
-15.54
-20.15
-24.67
-28.97
-33.12
-37.17
-41.05
-44.37
-46.49
-46.66
-44.43
-39.76
-33.12
-25.26
-16.94
-8.69
-0.78
6.68
13.55
19.64
24.66
28.32
30.53
31.50
31.59
31.29
31.00
30.95
31.09
31.19
30.85
29.80
27.97
25.55
22.86
20.23
17.86
15.72
13.62
11.31
8.62
5.48
1.95
-1.81
-5.61
-9.35
-12.91
-16.33
-19.68
-23.11
-26.77
-30.78
-35.19
-39.87
-44.53
-48.65
-51.69
-53.05
-52.30
-49.30
-44.17
-37.24
-29.00
-19.99
-10.68
-1.61
6.76
14.03
19.93
24.31
27.23
28.90
29.68
29.96
30.08
30.25
30.51
30.74
30.71
30.23
29.23
27.75
25.94
23.95
21.81
19.46
16.79
13.75
10.36
6.74
3.00
-0.79
-4.66
-8.70
-13.03
-17.72
-22.73
-27.91
-33.05
-37.85
-42.00
-45.15
-46.88
-46.77
-44.45
-39.81
-33.03
-24.70
-15.55
-6.34
2.37
10.26
17.19
23.01
27.61
30.80
32.53
32.92
32.28
30.97
29.32
27.53
25.67
23.72
21.69
19.62
17.56
15.58
13.73
11.94
10.06
7.86
5.15
1.84
-1.98
-6.12
-10.27
-14.14
-17.60
-20.64
-23.47
-26.35
-29.58
-33.40
-37.91
-42.94
-48.10
-52.75
-56.08
-57.38
-56.08
-52.00
-45.36
-36.61
-26.45
-15.58
-4.65
5.81
15.39
23.79
30.81
36.33
40.33
42.87
44.04
44.02
43.02
41.38
39.39
37.35
35.47
33.84
32.48
31.24
30.00
28.55
26.80
24.66
22.17
19.42
16.54
13.63
10.77
8.00
5.26
2.52
-0.28
-3.23
-6.42
-9.93
-13.90
-18.42
-23.56
-29.38
-35.74
-42.34
-48.64
-53.87
-57.19
-57.81
-55.22
-49.30
-40.45
-29.48
-17.37
-5.13
6.40
16.65
25.31
32.22
37.41
41.01
43.20
44.27
44.55
44.35
43.88
43.24
42.32
40.95
38.96
36.33
33.22
29.95
26.92
24.41
22.43
20.73
18.88
16.44
13.15
9.02
4.29
-0.68
-5.47
-9.73
-13.25
-15.95
-17.94
-19.50
-21.08
-23.12
-26.01
-29.85
-34.38
-39.00
-42.85
-44.99
-44.68
-41.46
-35.38
-26.95
-17.01
-6.45
3.92
13.49
21.91
28.94
34.44
38.33
40.63
41.45
41.08
39.80
37.82
35.29
32.30
28.93
25.29
21.57
17.95
14.59
11.54
8.73
6.07
3.40
0.62
-2.39
-5.64
-9.12
-12.73
-16.36
-19.91
-23.27
-26.42
-29.37
-32.13
-34.76
-37.25
-39.57
-41.52
-42.77
-42.93
-41.56
-38.38
-33.24
-26.30
-17.88
-8.46
1.41
11.06
19.84
27.15
32.60
36.07
37.71
37.88
36.97
35.39
33.41
31.25
29.10
27.12
25.47
24.25
23.45
22.92
22.33
21.27
19.32
16.19
11.78
6.34
0.38
-5.54
-10.88
-15.33
-18.83
-21.54
-23.86
-26.32
-29.48
-33.74
-39.19
-45.47
-51.76
-57.07
-60.40
-61.15
-59.17
-54.77
-48.48
-40.93
-32.67
-24.13
-15.69
-7.63
-0.21
6.31
11.73
15.88
18.65
19.99
19.99
18.82
16.86
14.51
12.15
10.03
8.31
7.04
6.26
6.01
6.26
6.84
7.47
7.82
7.63
6.92
5.91
4.88
4.00
3.16
2.09
0.59
-1.33
-3.42
-5.37
-7.07
-8.76
-10.91
-14.04
-18.39
-23.73
-29.43
-34.60
-38.38
-40.06
-39.24
-35.81
-29.90
-21.94
-12.52
-2.45
7.47
16.55
24.31
30.46
34.97
37.95
39.63
40.32
40.31
39.91
39.29
38.55
37.71
36.71
35.47
33.91
31.96
29.53
26.64
23.34
19.79
16.13
12.50
8.99
5.68
2.66
0.02
-2.23
-4.15
-5.86
-7.49
-9.17
-11.01
-13.20
-15.95
-19.50
-23.98
-29.41
-35.61
-42.22
-48.74
-54.50
-58.70
-60.51
-59.20
-54.33
-45.95
-34.62
-21.19
-6.65
8.16
22.52
35.82
47.48
56.97
63.87
68.03
69.60
68.95
66.53
62.70
57.78
52.03
45.92
40.03
35.05
31.49
29.44
28.59
28.26
27.74
26.48
24.21
20.91
16.74
11.79
6.13
-0.16
-7.06
-14.34
-21.70
-28.80
-35.38
-41.33
-46.77
-51.96
-57.22
-62.82
-68.83
-75.11
-81.18
-86.25
-89.22
-88.86
-84.25
-75.06
-61.90
-46.18
-29.73
-14.26
-0.86
10.19
19.19
26.62
32.76
37.59
40.93
42.68
43.01
42.34
41.11
39.60
37.83
35.67
32.90
29.43
25.32
20.72
15.84
10.90
6.04
1.31
-3.38
-8.33
-13.84
-20.10
-27.10
-34.49
-41.82
-48.67
-54.89
-60.51
-65.60
-70.06
-73.56
-75.73
-76.43
-75.92
-74.75
-73.50
-72.36
-70.91
-68.26
-63.43
-55.85
-45.62
-33.46
-20.38
-7.35
4.91
15.95
25.49
33.30
39.21
43.26
45.72
47.08
47.92
48.67
49.50
50.31
50.89
51.01
50.54
49.44
47.72
45.40
42.52
39.19
35.57
31.87
28.20
24.57
20.79
16.63
11.93
6.68
1.03
-4.72
-10.30
-15.60
-20.60
-25.53
-30.64
-36.11
-41.98
-48.06
-53.89
-58.77
-61.95
-62.70
-60.56
-55.44
-47.69
-37.99
-27.16
-15.97
-5.01
5.33
14.91
23.65
31.48
38.28
43.92
48.33
51.56
53.75
55.14
55.95
56.30
56.20
55.58
54.34
52.49
50.17
47.63
45.13
42.82
40.63
38.33
35.60
32.25
28.22
23.68
18.89
14.04
9.24
4.40
-0.64
-5.99
-11.67
-17.59
-23.64
-29.71
-35.75
-41.69
-47.25
-51.93
-55.03
-55.89
-54.07
-49.61
-42.94
-34.74
-25.70
-16.36
-7.02
2.15
11.03
19.39
26.93
33.29
38.19
41.46
43.15
43.50
42.85
41.43
39.36
36.59
33.18
29.47
26.13
23.90
23.25
23.97
25.20
25.83
25.04
22.77
19.64
16.58
14.15
12.25
10.22
7.39
3.57
-0.87
-5.09
-8.46
-10.88
-12.91
-15.43
-19.13
-24.09
-29.66
-34.79
-38.32
-39.61
-38.56
-35.59
-31.33
-26.27
-20.61
-14.22
-6.87
1.58
11.01
20.94
30.59
39.01
45.28
48.72
49.19
47.34
44.60
42.72
43.07
45.93
50.21
53.95
55.09
52.41
46.01
37.10
27.45
18.66
11.69
6.68
3.22
0.57
-2.03
-5.16
-9.17
-14.07
-19.61
-25.38
-31.00
-36.22
-40.91
-45.03
-48.62
-51.80
-54.67
-57.10
-58.68
-58.76
-56.78
-52.64
-46.73
-39.79
-32.49
-25.05
-17.26
-8.74
0.50
9.77
17.88
23.61
26.30
26.20
24.32
21.91
19.81
18.23
16.76
14.80
11.95
8.23
3.94
-0.63
-5.47
-10.70
-16.35
-22.06
-27.05
-30.47
-31.86
-31.52
-30.37
-29.57
-29.85
-31.15
-32.64
-33.12
-31.56
-27.53
-21.37
-14.10
-7.03
-1.35
2.26
3.82
4.04
4.04
4.96
7.61
12.37
19.17
27.63
37.16
46.93
55.94
63.19
67.91
69.79
68.97
66.04
61.75
56.84
51.96
47.57
43.93
41.03
38.60
36.21
33.43
30.01
25.91
21.28
16.32
11.25
6.35
2.01
-1.37
-3.52
-4.65
-5.46
-7.04
-10.40
-16.04
-23.68
-32.44
-41.20
-49.04
-55.36
-59.87
-62.31
-62.36
-59.70
-54.22
-46.20
-36.34
-25.48
-14.38
-3.48
6.96
16.69
25.13
31.56
35.28
36.08
34.46
31.51
28.57
26.64
26.02
26.24
26.48
26.09
25.03
23.93
23.73
25.12
28.11
31.99
35.64
38.12
39.01
38.51
37.11
35.25
33.03
30.41
27.39
24.16
21.09
18.46
16.14
13.51
9.71
4.07
-3.44
-12.11
-20.68
-27.93
-33.05
-35.86
-36.75
-36.35
-35.20
-33.55
-31.39
-28.50
-24.58
-19.36
-12.76
-4.90
3.79
12.56
20.61
27.13
31.61
33.91
34.12
32.56
29.68
26.04
22.24
18.91
16.50
15.21
14.83
14.84
14.65
13.82
12.11
9.54
6.30
2.65
-1.11
-4.64
-7.71
-10.26
-12.57
-15.32
-19.41
-25.59
-34.00
-43.95
-54.02
-62.67
-68.68
-71.71
-72.10
-70.52
-67.43
-62.69
-55.76
-46.00
-33.34
-18.38
-2.40
13.19
27.29
39.39
49.43
57.64
64.16
68.90
71.70
72.43
71.24
68.59
65.08
61.28
57.48
53.79
50.14
46.45
42.65
38.58
33.96
28.44
21.76
13.94
5.43
-3.05
-10.82
-17.43
-22.83
-27.13
-30.48
-32.86
-34.25
-34.73
-34.72
-34.90
-35.98
-38.34
-41.82
-45.74
-49.07
-50.76
-50.03
-46.59
-40.69
-33.06
-24.68
-16.51
-9.27
-3.19
1.90
6.40
10.63
14.65
18.23
20.89
22.22
22.05
20.50
17.98
14.96
11.84
8.85
6.07
3.47
0.92
-1.78
-4.96
-8.94
-13.88
-19.48
-24.99
-29.34
-31.68
-31.82
-30.34
-28.41
-27.19
-27.36
-28.91
-31.34
-34.13
-36.95
-39.68
-42.13
-43.85
-44.02
-41.85
-36.96
-29.62
-20.76
-11.51
-2.82
4.91
11.79
18.22
24.44
30.31
35.30
38.67
39.87
38.66
35.28
30.35
24.71
19.29
14.85
11.88
10.44
10.19
10.52
10.78
10.53
9.59
8.04
6.02
3.60
0.69
-2.82
-6.98
-11.57
-16.06
-19.78
-22.10
-22.72
-21.85
-20.15
-18.48
-17.64
-18.00
-19.41
-21.37
-23.07
-23.66
-22.43
-18.99
-13.58
-7.24
-1.68
1.25
0.18
-5.21
-14.03
-24.45
-34.40
-42.14
-46.58
-47.43
-45.00
-40.09
-33.80
-27.24
-21.24
-16.05
-11.31
-6.40
-0.80
5.61
12.58
19.70
26.64
33.19
39.33
45.06
50.49
56.01
62.40
70.58
81.23
94.21
108.28
121.37
131.16
135.83
134.64
127.97
117.05
103.36
88.16
72.24
55.92
39.47
23.35
8.40
-4.44
-14.46
-21.56
-26.33
-29.84
-33.14
-36.88
-41.03
-45.17
-48.81
-51.66
-53.55
-54.25
-53.24
-49.74
-43.14
-33.44
-21.60
-9.19
2.03
10.85
16.96
20.94
23.72
26.12
28.43
30.41
31.58
31.57
30.33
28.19
25.67
23.25
21.19
19.49
17.95
16.32
14.40
12.10
9.40
6.37
3.17
-0.06
-3.19
-6.09
-8.73
-11.16
-13.49
-15.90
-18.60
-21.80
-25.71
-30.45
-35.97
-42.04
-48.29
-54.31
-59.89
-64.99
-69.72
-74.12
-77.95
-80.68
-81.59
-80.02
-75.65
-68.63
-59.57
-49.31
-38.74
-28.63
-19.47
-11.54
-4.90
0.52
4.75
7.74
9.33
9.30
7.59
4.44
0.46
-3.44
-6.35
-7.70
-7.39
-5.84
-3.73
-1.83
-0.70
-0.66
-1.71
-3.48
-5.22
-5.95
-4.71
-1.01
4.81
11.57
17.45
20.74
20.37
16.27
9.15
0.17
-9.54
-19.11
-27.96
-35.63
-41.60
-45.32
-46.35
-44.51
-40.08
-33.71
-26.25
-18.49
-10.92
-3.69
3.29
10.13
16.75
22.79
27.66
30.82
32.03
31.43
29.49
26.91
24.23
21.80
19.58
17.37
14.87
11.99
8.77
5.45
2.29
-0.56
-3.09
-5.34
-7.27
-8.78
-9.65
-9.86
-9.69
-9.70
-10.65
-13.11
-17.20
-22.55
-28.45
-34.11
-39.06
-43.15
-46.47
-49.20
-51.43
-53.16
-54.39
-55.11
-55.20
-54.37
-52.10
-47.69
-40.66
-30.98
-19.32
-6.91
4.81
14.72
22.34
27.91
32.02
35.23
37.71
39.16
39.11
37.22
33.59
28.81
23.81
19.56
16.88
16.28
17.95
21.58
26.34
30.98
34.17
35.02
33.42
30.19
26.79
24.66
24.59
26.41
29.19
31.76
33.24
33.40
32.42
30.54
27.71
23.59
17.91
10.96
3.76
-2.20
-5.80
-6.86
-6.39
-6.06
-7.46
-11.55
-18.53
-28.24
-40.24
-53.81
-67.58
-79.39
-86.60
-87.01
-79.84
-66.34
-49.67
-33.79
-22.26
-16.83
-16.99
-20.14
-22.30
-19.57
-9.49
7.95
30.23
53.16
72.64
85.93
92.43
93.55
91.57
88.53
85.23
81.04
74.57
64.77
51.96
38.10
26.17
18.87
17.49
21.46
28.89
37.69
46.40
54.55
61.97
68.14
71.77
71.17
65.44
55.14
42.54
30.84
23.07
20.96
24.43
31.79
40.46
47.97
52.79
54.66
54.38
53.17
51.92
50.69
48.86
45.51
40.06
32.63
23.94
15.04
6.78
-0.58
-7.41
-14.41
-22.20
-30.92
-40.17
-49.16
-57.11
-63.63
-68.83
-73.13
-76.91
-80.28
-83.07
-85.03
-86.20
-87.04
-88.18
-90.06
-92.39
-94.06
-93.37
-88.71
-79.12
-64.61
-46.03
-24.59
-1.44
22.53
46.40
69.08
89.18
105.26
116.30
122.13
123.37
121.27
117.13
111.90
106.05
99.75
93.03
85.88
78.18
69.42
58.77
45.25
28.25
7.97
-14.43
-36.99
-57.51
-74.28
-86.52
-94.49
-99.12
-101.47
-102.17
-101.26
-98.18
-92.23
-82.92
-70.31
-55.04
-38.17
-20.92
-4.34
10.71
23.56
33.62
40.20
42.70
40.78
34.67
25.27
14.03
2.47
-8.27
-17.61
-25.53
-32.19
-37.65
-41.78
-44.38
-45.45
-45.32
-44.53
-43.49
-42.18
-40.19
-36.96
-32.12
-25.80
-18.50
-10.96
-3.87
2.25
6.92
9.73
10.29
8.46
4.47
-1.03
-7.23
-13.42
-19.29
-24.94
-30.72
-36.92
-43.48
-49.98
-55.75
-60.02
-62.12
-61.70
-58.70
-53.42
-46.40
-38.26
-29.50
-20.44
-11.19
-1.82
7.46
16.25
24.04
30.41
35.19
38.52
40.72
42.11
42.79
42.74
41.92
40.49
38.78
37.26
36.28
35.90
35.89
35.79
35.14
33.68
31.33
28.21
24.50
20.29
15.55
10.21
4.26
-2.16
-8.70
-14.91
-20.45
-25.15
-29.12
-32.75
-36.47
-40.63
-45.44
-50.81
-56.40
-61.61
-65.69
-67.91
-67.70
-64.81
-59.31
-51.57
-42.07
-31.38
-20.02
-8.54
2.51
12.57
21.19
28.05
33.01
36.14
37.59
37.65
36.64
34.93
32.88
30.80
28.84
26.99
25.20
23.30
21.22
18.94
16.49
13.83
10.95
7.84
4.52
1.11
-2.26
-5.53
-8.73
-12.01
-15.53
-19.39
-23.53
-27.82
-32.12
-36.40
-40.75
-45.32
-50.21
-55.31
-60.26
-64.46
-67.24
-67.90
-66.01
-61.40
-54.25
-45.04
-34.36
-22.83
-11.03
0.53
11.37
20.96
28.86
34.77
38.55
40.36
40.56
39.56
37.78
35.57
33.24
30.95
28.85
26.87
24.88
22.70
20.17
17.29
14.13
10.82
7.36
3.66
-0.50
-5.27
-10.66
-16.48
-22.37
-27.89
-32.65
-36.35
-38.89
-40.45
-41.47
-42.62
-44.63
-47.87
-52.25
-57.08
-61.32
-63.92
-64.22
-62.00
-57.55
-51.36
-43.88
-35.41
-26.20
-16.46
-6.50
3.29
12.49
20.67
27.45
32.61
36.05
37.90
38.47
38.22
37.68
37.30
37.30
37.64
38.01
37.96
37.06
35.10
32.13
28.46
24.48
20.53
16.73
13.03
9.26
5.34
1.28
-2.78
-6.73
-10.54
-14.24
-17.94
-21.73
-25.64
-29.69
-33.95
-38.42
-43.08
-47.64
-51.53
-53.96
-54.17
-51.62
-46.22
-38.26
-28.40
-17.34
-5.66
6.25
18.20
30.00
41.38
51.88
60.94
68.08
73.05
75.88
76.83
76.22
74.35
71.40
67.62
63.34
59.00
55.02
51.66
48.87
46.31
43.53
40.12
35.89
30.90
25.38
19.60
13.80
8.09
2.59
-2.66
-7.68
-12.64
-17.88
-23.81
-30.90
-39.37
-49.14
-59.68
-70.13
-79.42
-86.49
-90.58
-91.26
-88.60
-83.01
-75.16
-65.75
-55.33
-44.09
-31.90
-18.39
-3.32
13.16
30.29
46.76
61.08
72.02
78.95
82.09
82.31
80.91
79.15
78.05
78.10
79.27
81.04
82.60
83.13
82.01
79.02
74.35
68.41
61.62
54.26
46.41
38.04
29.20
20.17
11.32
3.05
-4.40
-11.05
-17.19
-23.19
-29.41
-36.06
-43.21
-50.85
-58.90
-67.23
-75.41
-82.71
-88.06
-90.32
-88.59
-82.53
-72.52
-59.55
-45.00
-30.22
-16.31
-3.88
6.79
15.68
23.14
29.53
35.05
39.53
42.49
43.41
42.03
38.35
32.88
26.79
21.30
17.23
14.58
12.62
10.38
7.09
2.28
-3.84
-10.08
-15.13
-18.25
-19.86
-21.31
-23.98
-28.37
-33.90
-38.49
-38.59
-30.69
-12.32
17.09
56.25
102.54
152.54
201.77
238.83
251.92
233.98
187.62
123.79
55.64
-6.91
-57.00
-96.05
-125.98
-147.06
-158.84
-161.48
-156.98
-148.10
-138.72
-131.95
-129.41
-130.16
-131.23
-129.26
-121.96
-109.21
-93.04
-76.75
-63.27
-54.56
-50.64
-49.90
-50.18
-49.73
-47.85
-44.93
-42.01
-39.97
-39.44
-40.34
-42.09
-43.95
-45.24
-45.52
-44.77
-43.38
-41.94
-41.19
-41.49
-42.74
-44.39
-45.58
-45.52
-43.71
-39.96
-34.11
-25.93
-14.97
-0.86
16.35
36.14
57.68
80.00
102.20
123.40
142.46
158.09
168.98
174.32
174.18
169.58
162.16
153.56
145.03
137.11
129.74
122.44
114.60
105.68
95.50
84.40
73.40
63.97
57.38
54.20
53.90
55.11
56.30
56.47
55.31
53.07
50.11
46.43
41.63
35.09
26.41
15.89
4.64
-5.92
-14.58
-20.80
-24.80
-27.33
-29.22
-31.01
-32.46
-32.34
-29.34
-22.66
-12.41
0.37
14.19
27.48
39.10
48.59
56.62
63.77
70.36
76.40
81.95
87.42
93.54
101.08
110.42
121.48
132.18
138.66
136.72
123.77
100.14
69.10
35.53
-1.28
-39.98
-78.61
-114.89
-146.48
-171.26
-187.57
-194.81
-193.79
-186.68
-175.66
-163.22
-151.72
-142.53
-136.60
-134.61
-137.67
-146.98
-163.30
-185.48
-210.78
-235.40
-255.71
-269.69
-275.64
-274.46
-268.03
-257.48
-241.78
-219.07
-188.38
-151.15
-111.41
-74.19
-43.64
-21.11
-5.19
7.15
18.49
29.94
41.19
51.46
60.22
67.56
74.48
82.82
94.45
110.50
130.50
151.96
171.09
183.88
187.63
182.02
168.82
151.03
131.88
114.22
100.58
93.15
93.36
101.29
115.19
131.71
147.07
158.42
164.71
166.78
166.52
165.61
164.99
164.60
163.56
160.65
154.58
144.37
129.57
110.88
89.82
68.35
48.27
30.58
15.70
3.60
-5.85
-12.63
-16.87
-18.94
-19.74
-20.46
-22.31
-25.96
-31.28
-37.40
-43.18
-47.85
-51.37
-54.33
-57.46
-60.97
-64.21
-65.93
-64.98
-60.93
-54.51
-47.30
-40.96
-36.48
-33.77
-31.84
-29.47
-25.98
-21.56
-17.13
-13.75
-11.87
-10.98
-9.87
-7.40
-3.28
1.46
5.00
5.74
3.20
-1.61
-6.71
-10.21
-11.17
-9.98
-7.94
-6.74
-7.85
-12.22
-20.14
-30.97
-42.96
-53.25
-58.53
-56.07
-44.96
-26.64
-4.43
17.81
36.98
51.59
61.56
67.35
69.18
66.85
60.29
50.45
39.75
31.53
28.61
31.82
39.32
47.25
51.67
50.49
44.71
37.78
33.92
35.94
43.92
55.32
66.04
71.97
70.04
58.69
37.93
9.22
-24.88
-61.00
-95.52
-125.33
-148.59
-165.12
-176.61
-186.38
-198.68
-217.47
-244.73
-278.80
-313.98
-341.80
-353.78
-344.79
-314.97
-269.32
-215.22
-159.44
-106.27
-57.74
-14.99
20.60
47.43
65.01
75.12
81.79
89.78
102.40
119.92
139.82
158.12
171.26
177.51
177.23
172.19
164.57
156.07
147.55
139.13
130.64
121.98
113.53
106.13
100.53
96.94
94.55
91.75
86.83
78.85
68.13
56.16
44.83
35.51
28.46
22.98
17.96
12.88
8.22
5.32
5.72
10.32
18.92
30.35
43.02
55.53
67.01
77.05
85.52
92.40
97.74
101.67
104.27
105.32
104.12
99.69
91.19
78.50
62.49
44.77
27.07
10.51
-4.82
-19.78
-35.61
-53.28
-73.08
-94.37
-115.81
-135.60
-151.96
-163.48
-169.44
-169.89
-165.60
-157.83
-147.98
-137.41
-127.27
-118.43
-111.52
-106.79
-104.16
-102.98
-102.10
-100.02
-95.41
-87.57
-76.88
-64.66
-52.67
-42.30
-33.83
-26.49
-18.87
-9.95
0.18
10.35
18.82
24.33
26.61
26.51
25.42
24.58
24.67
25.73
27.57
29.95
32.81
35.99
39.04
41.19
41.72
40.27
37.15
33.24
29.52
26.74
25.01
24.04
23.29
22.35
21.03
19.20
16.62
12.77
7.13
-0.57
-10.00
-20.25
-30.06
-38.31
-44.33
-47.98
-49.55
-49.38
-47.66
-44.27
-38.98
-31.67
-22.47
-11.90
-0.72
10.20
20.14
28.66
35.69
41.38
45.92
49.32
51.44
52.17
51.47
49.36
45.67
39.86
31.25
19.52
5.35
-9.46
-22.33
-30.97
-34.25
-32.51
-27.14
-19.62
-10.71
-0.36
11.65
25.01
38.41
49.90
57.69
60.89
59.85
55.87
50.64
45.50
41.11
37.41
33.80
29.59
24.24
17.55
9.80
1.75
-5.51
-10.74
-12.94
-11.69
-7.27
-0.64
6.92
14.27
20.63
25.74
29.67
32.64
34.78
36.13
36.63
36.10
34.28
30.88
25.66
18.61
10.17
1.25
-6.97
-13.39
-17.44
-19.24
-19.47
-19.05
-18.64
-18.48
-18.47
-18.34
-18.02
-17.71
-17.75
-18.40
-19.67
-21.21
-22.64
-23.65
-24.26
-24.77
-25.59
-27.00
-29.08
-31.74
-34.73
-37.84
-40.93
-43.83
-46.22
-47.65
-47.51
-45.32
-40.84
-34.18
-25.77
-16.20
-6.08
3.98
13.31
21.28
27.25
30.83
32.04
31.35
29.59
27.67
26.24
25.53
25.40
25.38
25.00
23.92
22.05
19.70
17.47
15.96
15.57
16.20
17.14
17.33
15.79
12.04
6.40
-0.17
-6.46
-11.50
-14.95
-17.16
-19.02
-21.51
-25.50
-31.38
-39.07
-47.98
-57.08
-65.09
-70.69
-72.87
-71.14
-65.72
-57.46
-47.55
-37.17
-27.14
-17.79
-8.98
-0.38
8.29
17.06
25.54
32.99
38.49
41.21
40.75
37.36
32.08
26.48
22.26
20.63
21.84
25.00
28.41
30.13
28.81
24.08
16.73
8.31
0.49
-5.54
-9.40
-11.58
-13.19
-15.50
-19.53
-25.68
-33.65
-42.67
-51.89
-60.93
-70.06
-79.98
-91.15
-103.05
-114.02
-121.67
-123.91
-119.85
-110.21
-96.80
-81.52
-65.45
-48.70
-30.72
-10.98
10.84
35.08
62.30
93.19
127.80
164.57
199.96
229.07
247.25
251.68
242.36
221.83
193.96
162.60
130.59
99.68
71.00
45.59
24.45
8.35
-2.59
-9.15
-12.82
-15.29
-17.85
-20.94
-24.14
-26.56
-27.49
-26.88
-25.49
-24.61
-25.42
-28.43
-33.24
-38.77
-43.78
-47.51
-49.98
-51.90
-54.13
-57.19
-60.86
-64.25
-66.28
-66.06
-63.28
-58.18
-51.38
-43.47
-34.91
-25.94
-16.73
-7.51
1.44
9.72
16.94
22.76
26.99
29.61
30.74
30.64
29.63
28.07
26.33
24.75
23.56
22.88
22.63
22.61
22.58
22.39
21.91
21.07
19.70
17.58
14.55
10.64
6.17
1.64
-2.54
-6.21
-9.52
-12.75
-16.16
-19.73
-23.28
-26.56
-29.48
-32.16
-34.79
-37.51
-40.25
-42.75
-44.61
-45.41
-44.77
-42.34
-37.90
-31.34
-22.83
-12.80
-1.95
8.95
19.13
27.99
35.26
40.95
45.33
48.86
52.00
55.04
57.91
60.19
61.12
59.95
56.29
50.34
42.89
35.12
28.15
22.72
18.95
16.35
14.08
11.29
7.35
2.05
-4.44
-11.69
-19.11
-26.12
-32.26
-37.17
-40.48
-41.61
-39.69
-33.76
-23.12
-7.85
10.80
30.50
48.26
61.33
67.89
67.37
60.32
47.82
31.17
11.69
-9.02
-28.94
-45.69
-57.17
-62.24
-61.32
-56.17
-49.16
-42.39
-36.92
-32.91
-29.95
-27.69
-26.06
-25.14
-24.91
-25.01
-24.84
-23.78
-21.58
-18.38
-14.74
-11.49
-9.58
-9.91
-13.15
-19.48
-28.30
-38.20
-47.18
-53.12
-54.40
-50.42
-41.71
-29.79
-16.55
-3.70
7.65
17.14
24.75
30.45
33.90
34.43
31.41
24.61
14.37
1.58
-12.50
-26.32
-38.25
-46.75
-50.62
-49.34
-43.19
-33.29
-21.28
-8.89
2.50
12.07
19.57
25.09
28.89
31.23
32.33
32.48
32.03
31.49
31.43
32.35
34.41
37.32
40.50
43.32
45.44
46.93
48.20
49.73
51.87
54.50
57.00
58.52
58.30
56.06
52.08
47.19
42.39
38.49
35.69
33.44
30.71
26.35
19.69
10.66
-0.17
-11.80
-23.29
-34.00
-43.68
-52.30
-59.88
-66.18
-70.70
-72.87
-72.18
-68.51
-62.17
-53.81
-44.24
-34.37
-24.83
-16.06
-8.26
-1.50
4.16
8.71
12.21
14.73
16.43
17.43
17.83
17.66
16.93
15.71
14.15
12.53
11.12
10.09
9.46
9.06
8.62
7.83
6.54
4.75
2.63
0.42
-1.67
-3.63
-5.58
-7.77
-10.35
-13.38
-16.73
-20.24
-23.81
-27.45
-31.23
-35.11
-38.93
-42.31
-44.71
-45.63
-44.68
-41.68
-36.72
-30.05
-22.11
-13.45
-4.61
3.91
11.67
18.43
23.99
28.25
31.23
33.03
33.83
33.93
33.63
33.15
32.65
32.14
31.57
30.88
30.03
29.00
27.76
26.27
24.53
22.61
20.62
18.67
16.75
14.66
12.08
8.68
4.42
-0.44
-5.34
-9.70
-13.22
-16.04
-18.67
-21.70
-25.52
-30.13
-35.26
-40.49
-45.50
-50.13
-54.31
-57.93
-60.79
-62.63
-63.23
-62.29
-59.48
-54.43
-46.81
-36.53
-24.01
-10.30
3.16
14.90
23.82
29.55
32.46
33.46
33.59
33.55
33.44
32.83
31.08
27.70
22.74
16.85
11.03
6.35
3.65
3.32
5.30
9.00
13.35
17.03
18.66
17.23
12.43
4.80
-4.43
-13.72
-21.73
-27.59
-30.96
-32.00
-31.35
-29.98
-29.02
-29.57
-32.26
-37.07
-43.16
-49.14
-53.44
-55.00
-53.58
-49.80
-44.83
-39.70
-34.80
-29.70
-23.35
-14.70
-3.32
10.27
24.60
37.78
48.10
54.56
57.07
56.32
53.34
49.10
44.38
39.82
36.12
34.26
35.19
39.43
46.53
54.92
62.24
66.25
65.69
60.80
53.12
44.64
36.91
30.38
24.41
17.88
9.97
0.76
-8.80
-17.18
-23.02
-25.70
-25.56
-23.83
-22.22
-22.31
-25.17
-31.02
-39.11
-48.00
-55.89
-61.17
-62.81
-60.66
-55.32
-47.94
-39.73
-31.56
-23.83
-16.45
-9.09
-1.47
6.57
14.92
23.25
31.14
38.17
44.01
48.52
51.72
53.65
54.41
54.14
52.94
50.97
48.40
45.31
41.66
37.41
32.57
27.35
22.24
17.82
14.49
12.24
10.55
8.58
5.50
0.89
-5.11
-11.84
-18.39
-23.87
-27.82
-30.28
-31.81
-33.18
-35.17
-38.24
-42.35
-46.91
-50.89
-53.06
-52.35
-48.11
-40.48
-30.31
-18.99
-7.97
1.64
9.41
15.51
20.50
24.93
29.03
32.70
35.60
37.38
37.93
37.39
36.13
34.55
32.93
31.32
29.56
27.44
24.81
21.66
17.99
13.75
8.81
3.14
-2.90
-8.37
-11.85
-11.87
-7.63
0.33
10.01
18.45
22.69
20.90
13.03
0.82
-12.87
-25.13
-33.83
-38.09
-38.25
-35.47
-31.13
-26.46
-22.24
-18.62
-15.24
-11.39
-6.43
-0.21
6.66
12.88
17.06
18.35
17.04
14.47
12.46
12.45
14.74
18.47
22.07
24.21
24.40
23.15
21.48
20.15
19.19
17.74
14.73
9.30
1.30
-8.81
-20.26
-32.38
-44.67
-56.69
-68.06
-78.35
-87.24
-94.56
-100.21
-103.94
-105.41
-104.25
-100.58
-95.34
-90.03
-86.10
-84.01
-82.80
-80.34
-74.35
-63.61
-48.57
-31.32
-14.48
-0.26
10.40
17.91
23.64
29.17
35.64
43.30
51.44
58.62
63.24
64.16
61.17
55.18
47.78
40.64
34.77
30.20
26.29
22.33
18.14
14.33
11.91
11.59
13.26
15.86
17.84
17.99
16.07
12.82
9.61
7.52
6.83
6.98
6.86
5.35
1.86
-3.48
-9.87
-15.94
-20.27
-21.81
-20.41
-17.02
-13.31
-10.97
-10.80
-12.22
-13.35
-11.85
-6.00
4.49
18.29
32.99
46.05
55.63
61.14
63.08
62.69
61.28
59.86
58.91
58.58
58.89
59.81
61.27
62.92
64.06
63.68
60.94
55.45
47.73
38.95
30.56
23.76
19.04
16.09
14.02
11.75
8.43
3.73
-2.06
-8.24
-14.00
-18.83
-22.76
-26.38
-30.49
-35.72
-42.17
-49.40
-56.55
-62.77
-67.50
-70.68
-72.65
-74.01
-75.39
-77.21
-79.46
-81.67
-82.75
-81.21
-75.43
-64.34
-47.89
-27.55
-6.11
13.00
26.68
33.32
33.23
28.54
22.42
17.96
17.15
20.35
26.27
32.55
36.70
37.03
33.24
26.48
18.93
12.81
9.66
9.74
12.04
14.77
15.97
14.15
8.84
0.84
-7.78
-14.20
-15.85
-11.56
-2.44
8.19
15.83
16.71
9.44
-4.17
-19.76
-32.13
-37.48
-34.84
-26.39
-16.24
-8.61
-6.22
-9.51
-16.96
-26.20
-35.08
-42.24
-47.11
-49.63
-49.89
-48.20
-45.10
-41.32
-37.52
-33.83
-29.64
-23.92
-15.81
-5.28
6.75
18.62
28.60
35.55
39.20
40.22
39.91
39.83
41.27
44.87
50.33
56.49
61.76
64.80
64.98
62.57
58.54
53.87
49.19
44.61
39.89
34.82
29.41
23.89
18.55
13.63
9.33
5.95
3.78
2.92
2.88
2.44
-0.06
-5.96
-15.39
-26.94
-37.97
-45.55
-47.58
-43.44
-34.10
-21.64
-8.50
3.13
11.61
16.20
16.98
14.93
11.64
8.90
8.04
9.42
12.33
15.24
16.46
14.86
10.40
4.15
-2.14
-6.75
-8.76
-8.39
-6.74
-5.19
-4.68
-5.27
-6.31
-6.94
-6.71
-5.90
-5.31
-5.81
-7.73
-10.69
-13.67
-15.59
-15.78
-14.26
-11.72
-9.14
-7.35
-6.63
-6.61
-6.57
-5.75
-3.80
-0.78
2.89
6.83
10.97
15.49
20.77
26.92
33.62
40.10
45.31
48.25
48.38
45.79
41.17
35.57
30.05
25.35
21.80
19.19
17.12
15.11
12.86
10.18
6.98
3.24
-0.93
-5.17
-8.92
-11.49
-12.47
-11.85
-10.14
-8.05
-6.25
-5.06
-4.58
-4.86
-6.04
-8.47
-12.39
-17.74
-23.93
-30.04
-35.19
-38.72
-40.43
-40.41
-38.91
-36.16
-32.42
-27.95
-23.08
-18.21
-13.55
-9.17
-4.92
-0.63
3.71
7.93
11.67
14.55
16.35
17.10
17.04
16.55
15.99
15.55
15.24
14.89
14.35
13.48
12.30
10.83
9.14
7.18
4.87
2.18
-0.84
-3.94
-6.85
-9.39
-11.61
-13.73
-16.01
-18.55
-21.19
-23.69
-25.89
-27.98
-30.35
-33.38
-37.12
-41.07
-44.33
-45.88
-45.11
-41.92
-36.79
-30.42
-23.48
-16.37
-9.21
-1.98
5.33
12.56
19.40
25.44
30.28
33.70
35.69
36.49
36.46
36.03
35.55
35.21
35.06
35.00
34.84
34.33
33.25
31.39
28.72
25.29
21.39
17.45
13.96
11.32
9.47
7.67
4.46
-1.88
-12.67
-28.04
-46.58
-65.62
-82.14
-93.81
-99.75
-100.52
-97.53
-92.26
-85.54
-77.54
-68.12
-57.28
-45.49
-33.61
-22.47
-12.50
-3.53
5.02
13.79
22.99
32.28
40.84
47.82
52.81
56.03
58.24
60.28
62.68
65.44
68.20
70.49
72.09
73.04
73.59
73.94
74.08
73.72
72.41
69.77
65.55
59.84
53.04
45.79
38.89
33.00
28.44
25.02
22.01
18.33
12.92
5.09
-5.19
-17.18
-29.56
-40.91
-50.25
-57.51
-63.57
-69.85
-77.53
-86.82
-96.67
-105.05
-109.67
-108.96
-102.62
-91.74
-78.32
-64.56
-52.22
-42.26
-34.74
-28.98
-23.84
-18.07
-10.63
-0.98
10.88
24.31
38.24
51.41
62.56
70.67
75.20
76.13
74.12
70.29
66.06
62.70
60.99
60.93
61.85
62.80
63.01
62.41
61.68
62.00
64.45
69.47
76.52
84.21
90.86
95.02
96.01
93.94
89.56
83.88
77.94
72.67
68.90
67.31
68.23
71.78
77.81
86.18
97.05
110.80
127.58
146.53
165.20
179.48
184.76
177.56
157.12
125.87
88.59
50.54
15.65
-14.54
-40.83
-65.18
-89.57
-115.08
-141.62
-168.40
-194.80
-220.93
-247.68
-276.15
-306.48
-337.32
-366.04
-390.16
-408.86
-423.35
-435.67
-446.53
-453.54
-451.58
-435.25
-402.12
-354.64
-299.68
-245.64
-199.19
-163.15
-136.80
-117.53
-102.67
-90.21
-78.24
-64.16
-44.34
-15.24
24.90
74.48
128.26
178.49
217.39
239.73
244.18
233.18
211.48
184.36
156.55
131.68
112.09
98.54
89.97
83.90
77.75
70.57
64.28
63.08
71.37
91.15
120.59
154.77
188.28
217.88
243.43
266.55
287.91
305.16
313.16
306.35
282.11
242.95
196.13
150.94
114.77
90.35
74.97
62.35
45.89
21.57
-10.35
-45.68
-77.97
-100.77
-109.60
-103.18
-83.70
-55.75
-24.57
5.85
33.69
58.92
81.71
101.08
114.49
118.93
112.82
97.38
76.26
53.82
33.18
15.39
-0.00
-13.25
-23.44
-28.59
-26.94
-18.51
-5.76
6.84
14.28
12.99
2.62
-13.72
-30.50
-42.38
-47.01
-46.56
-47.12
-55.56
-75.91
-106.82
-142.14
-174.11
-197.64
-212.47
-222.18
-230.81
-239.13
-243.50
-237.57
-216.13
-178.07
-127.21
-70.63
-15.66
32.50
71.64
101.56
122.68
134.92
137.72
130.42
112.99
86.53
53.20
16.20
-20.33
-51.71
-73.58
-83.11
-80.19
-67.93
-52.07
-39.69
-37.54
-50.66
-81.09
-126.84
-181.56
-235.20
-276.04
-293.73
-282.66
-244.05
-185.95
-120.64
-60.79
-15.59
11.34
21.83
21.26
15.88
10.83
9.00
11.18
16.76
24.58
33.66
43.64
54.92
68.46
85.43
106.56
131.68
159.26
186.74
211.33
230.88
244.50
252.55
256.01
255.64
251.58
243.36
230.51
213.09
191.93
168.49
144.33
120.94
99.47
80.82
65.64
54.16
45.83
38.95
30.89
18.77
0.73
-22.79
-48.68
-71.95
-87.62
-92.77
-87.84
-76.39
-63.51
-53.69
-49.38
-50.78
-56.67
-65.61
-76.58
-88.83
-101.26
-112.16
-119.85
-123.79
-125.53
-128.36
-135.77
-149.25
-166.88
-183.70
-193.85
-193.18
-181.05
-160.23
-135.19
-109.93
-86.80
-66.66
-49.95
-37.60
-30.93
-30.55
-35.33
-42.02
-46.26
-44.34
-34.76
-18.89
-0.34
16.40
27.62
31.39
28.01
19.55
8.88
-1.29
-9.20
-14.29
-16.87
-17.46
-16.25
-12.70
-5.90
4.82
19.14
35.53
51.48
64.35
72.46
75.71
75.69
74.94
75.77
79.24
84.53
89.40
91.24
88.56
81.95
74.07
68.57
68.28
73.71
82.35
89.26
88.94
77.51
54.27
21.82
-14.98
-50.67
-80.31
-99.93
-106.59
-98.84
-77.56
-46.91
-13.96
13.47
29.96
35.31
34.86
36.76
47.53
68.38
94.52
117.98
132.02
134.36
127.50
116.41
105.18
94.98
84.32
71.10
54.81
37.51
22.76
13.69
11.23
13.67
17.74
20.36
20.16
18.09
16.65
18.56
25.34
36.64
50.24
63.19
72.90
78.07
78.94
76.72
72.95
68.71
64.40
59.78
54.42
48.03
40.70
32.91
25.26
18.28
12.20
6.99
2.47
-1.56
-5.40
-9.43
-14.18
-20.29
-28.28
-38.18
-49.30
-60.17
-68.92
-73.78
-73.78
-68.99
-60.52
-50.04
-39.26
-29.53
-21.63
-16.00
-12.77
-11.99
-13.48
-16.93
-21.73
-27.30
-33.25
-39.53
-46.41
-54.12
-62.58
-70.96
-77.71
-80.88
-78.79
-70.78
-57.72
-41.89
-26.29
-13.59
-5.09
-0.41
2.16
4.84
9.40
16.51
25.73
35.81
45.22
52.55
56.80
57.41
54.42
48.38
40.36
31.64
23.45
16.63
11.48
7.75
4.78
1.77
-1.99
-6.84
-12.52
-18.17
-22.48
-24.17
-22.44
-17.46
-10.39
-3.06
2.68
5.72
6.27
5.80
6.47
10.16
17.57
27.77
38.54
47.20
51.83
51.98
48.68
43.81
39.07
35.18
31.72
27.56
21.61
13.40
3.34
-7.65
-18.46
-28.28
-36.80
-44.20
-50.83
-56.94
-62.45
-66.91
-69.68
-70.23
-68.36
-64.26
-58.22
-50.28
-40.20
-27.67
-12.81
3.59
20.30
36.20
50.98
65.21
79.85
95.30
110.82
124.59
134.65
139.95
140.86
138.89
135.67
131.99
127.41
120.72
110.81
97.37
80.95
62.64
43.42
23.85
4.10
-15.71
-35.15
-53.48
-69.79
-83.44
-94.16
-102.21
-108.19
-112.79
-116.55
-119.69
-122.07
-123.11
-121.99
-117.96
-110.69
-100.59
-88.86
-77.11
-66.81
-58.75
-52.79
-48.18
-43.97
-39.56
-34.95
-30.52
-26.75
-23.77
-21.27
-18.68
-15.49
-11.53
-7.08
-2.73
0.88
3.43
4.97
5.88
6.57
7.23
7.65
7.32
5.67
2.41
-2.17
-7.25
-11.67
-14.32
-14.45
-12.06
-7.96
-3.63
-0.80
-0.92
-4.52
-10.92
-18.46
-25.06
-29.18
-30.44
-29.75
-28.93
-29.85
-33.65
-40.41
-49.08
-57.70
-63.67
-63.98
-55.90
-37.95
-10.97
21.29
52.85
77.31
90.16
90.37
80.53
65.43
49.86
37.05
28.01
22.26
18.75
16.51
14.54
11.60
6.07
-3.63
-18.22
-37.05
-58.11
-78.77
-96.82
-111.25
-122.43
-131.66
-140.33
-149.10
-157.59
-164.52
-168.31
-167.83
-162.85
-154.10
-142.93
-130.75
-118.48
-106.12
-92.69
-76.41
-55.42
-28.57
3.81
39.67
75.73
108.50
135.30
155.00
167.91
175.12
177.75
176.40
171.06
161.41
147.15
128.33
105.53
79.99
53.73
29.39
9.85
-2.51
-6.37
-1.66
10.36
27.42
46.41
63.49
74.44
75.24
63.09
37.58
1.24
-40.61
-81.21
-114.14
-135.21
-143.62
-142.02
-135.60
-130.53
-132.02
-142.60
-161.13
-182.79
-200.23
-205.65
-193.25
-161.34
-113.13
-56.15
0.15
47.23
80.10
98.19
104.62
104.05
100.48
95.88
90.22
82.64
72.69
60.96
48.77
37.23
26.54
15.94
4.45
-8.25
-21.28
-32.80
-40.86
-44.43
-43.91
-40.98
-37.65
-35.29
-33.97
-32.78
-30.68
-27.71
-25.29
-25.74
-31.03
-41.37
-54.65
-67.01
-74.34
-73.78
-64.66
-48.42
-27.80
-5.78
15.13
33.07
46.82
55.72
59.91
60.46
59.41
59.18
61.68
67.51
75.59
83.58
88.97
90.01
86.46
79.46
71.03
63.17
57.34
54.15
53.50
54.86
57.51
60.78
64.08
66.93
68.93
69.80
69.38
67.63
64.76
61.06
56.76
52.08
47.25
42.30
37.21
31.84
26.02
19.72
12.94
5.71
-1.93
-9.87
-18.05
-26.28
-34.08
-40.62
-44.65
-45.16
-42.09
-36.30
-29.23
-22.66
-18.01
-15.88
-16.09
-17.48
-18.90
-20.18
-21.06
-20.81
-18.63
-13.81
-5.97
4.52
17.38
31.40
43.44
51.21
54.43
54.19
52.74
52.77
56.43
65.85
81.04
97.82
112.20
122.28
127.51
128.74
127.79
126.54
128.11
134.08
141.37
146.81
148.56
144.60
133.66
116.42
85.14
39.93
4.85
-6.34
4.95
34.01
71.67
107.42
132.86
144.09
143.70
136.84
125.55
111.49
96.51
81.26
66.06
51.15
36.37
22.34
8.67
-7.78
-28.62
-52.46
-76.63
-98.05
-114.37
-124.81
-129.30
-128.97
-126.82
-124.64
-122.11
-117.94
-110.40
-98.17
-81.04
-59.94
-37.46
-17.94
-5.31
-1.54
-6.29
-16.88
-29.13
-38.81
-42.88
-40.39
-32.67
-22.07
-10.99
-1.26
5.99
10.25
11.39
9.55
5.16
-1.01
-7.97
-14.70
-20.44
-25.01
-28.70
-32.10
-35.63
-39.33
-42.80
-45.30
-46.07
-44.44
-39.98
-32.61
-22.71
-11.28
0.05
9.28
14.58
14.96
10.73
3.56
-4.07
-9.77
-11.99
-10.43
-5.77
0.76
8.01
14.99
20.93
25.12
26.90
25.92
22.36
17.07
11.31
6.32
2.84
0.93
0.09
-0.37
-0.91
-1.68
-2.64
-3.68
-4.75
-5.89
-7.25
-8.99
-11.28
-14.07
-16.85
-18.51
-17.54
-12.86
-4.62
5.10
12.81
14.75
8.67
-5.12
-23.82
-43.39
-60.40
-73.24
-82.34
-89.24
-95.43
-101.48
-106.98
-111.08
-113.21
-113.37
-111.89
-109.07
-104.73
-98.34
-89.33
-77.57
-63.68
-48.98
-34.95
-22.47
-11.38
-0.38
12.31
27.87
46.13
65.35
82.95
96.50
104.66
107.50
106.17
102.12
96.60
90.31
83.58
76.61
69.58
62.61
55.53
47.92
39.16
28.76
16.65
3.21
-10.69
-24.00
-35.57
-44.45
-49.98
-51.98
-50.94
-48.01
-44.91
-43.48
-45.04
-49.80
-56.65
-63.47
-67.89
-68.35
-64.70
-58.28
-51.27
-45.72
-42.50
-41.06
-39.75
-36.66
-30.52
-21.21
-9.67
2.55
13.84
22.90
28.90
31.32
29.90
24.67
16.08
5.03
-7.22
-19.28
-29.97
-38.47
-44.50
-48.19
-49.94
-50.16
-49.10
-46.78
-43.00
-37.46
-29.96
-20.51
-9.51
2.34
14.13
25.00
34.44
42.46
49.69
57.18
66.00
76.83
89.41
102.43
113.72
120.88
122.26
117.53
107.74
94.79
80.39
65.34
49.26
31.10
10.01
-13.94
-39.52
-64.74
-87.44
-105.89
-118.93
-126.02
-127.10
-122.69
-113.91
-102.30
-89.53
-76.91
-65.02
-53.61
-41.81
-28.68
-13.82
2.30
18.41
32.79
43.89
50.87
53.94
54.34
53.90
54.32
56.41
59.69
62.56
62.95
59.31
51.15
39.22
24.87
9.40
-6.48
-22.64
-39.06
-55.28
-70.18
-82.36
-90.73
-95.01
-95.75
-94.00
-90.74
-86.39
-80.68
-72.85
-62.01
-47.61
-29.74
-9.25
12.40
33.50
52.69
69.29
83.43
95.92
107.49
118.33
127.79
134.61
137.49
135.67
129.25
119.07
106.23
91.61
75.70
58.65
40.62
22.12
3.97
-12.87
-27.68
-40.32
-51.22
-61.04
-70.36
-79.46
-88.18
-96.05
-102.45
-106.83
-108.76
-108.18
-105.42
-101.18
-96.38
-91.72
-87.29
-82.31
-75.42
-65.32
-51.44
-34.56
-16.72
-0.57
11.47
18.03
19.13
15.93
10.22
3.70
-2.47
-7.80
-12.36
-16.40
-20.17
-23.73
-26.97
-29.54
-31.02
-30.90
-28.82
-24.72
-18.88
-12.00
-5.11
0.77
4.83
6.70
6.61
5.22
3.56
2.63
3.21
5.70
9.99
15.65
22.07
28.55
34.42
39.16
42.56
44.84
46.59
48.62
51.48
55.17
59.16
62.62
65.03
66.47
67.63
69.28
71.69
74.06
74.76
71.88
64.19
51.69
35.70
18.38
1.81
-12.64
-24.55
-34.19
-41.99
-48.11
-52.31
-54.20
-53.70
-51.23
-47.63
-43.84
-40.53
-37.98
-36.30
-35.67
-36.42
-38.84
-42.76
-47.32
-51.14
-52.86
-51.76
-48.06
-42.73
-36.84
-31.09
-25.58
-20.08
-14.45
-8.89
-3.96
-0.07
2.68
4.69
6.58
8.95
12.17
16.41
21.84
28.61
36.89
46.63
57.42
68.34
78.22
85.83
90.26
91.19
88.94
84.48
79.03
73.71
69.28
65.87
63.13
60.45
57.17
52.77
46.84
39.07
29.26
17.46
4.19
-9.44
-21.82
-31.32
-36.77
-37.98
-35.78
-31.83
-27.98
-25.62
-25.24
-26.31
-27.69
-28.25
-27.29
-24.80
-21.45
-18.29
-16.44
-16.78
-19.62
-24.48
-29.98
-34.17
-35.07
-31.54
-23.92
-14.05
-4.76
1.15
1.93
-2.59
-11.10
-21.40
-31.09
-38.30
-41.89
-41.70
-38.24
-32.41
-25.16
-17.28
-9.30
-1.59
5.61
12.13
17.96
23.29
28.40
33.54
38.68
43.47
47.46
50.52
53.02
55.79
59.76
65.44
72.58
80.20
87.10
92.33
95.59
97.25
97.95
98.11
97.64
95.88
91.84
84.68
73.99
59.91
42.99
23.92
3.33
-18.22
-40.26
-62.29
-83.85
-104.45
-123.62
-140.70
-154.67
-164.32
-168.43
-166.36
-158.44
-145.94
-130.51
-113.48
-95.34
-75.87
-54.87
-32.88
-11.47
7.23
21.39
30.34
34.82
36.58
37.64
39.42
42.57
46.85
51.63
56.25
60.30
63.66
66.42
68.76
70.74
72.36
73.61
74.60
75.68
77.23
79.42
81.88
83.67
83.50
80.26
73.70
64.68
55.02
46.80
41.63
40.09
41.69
45.35
49.92
54.62
58.92
62.33
64.09
63.21
58.82
50.70
39.57
26.94
14.61
3.86
-4.97
-12.46
-19.67
-27.47
-36.06
-44.92
-53.14
-59.75
-64.28
-66.77
-67.74
-67.98
-68.21
-68.88
-69.98
-71.06
-71.26
-69.71
-65.87
-59.88
-52.61
-45.32
-39.17
-34.77
-32.11
-30.64
-29.86
-29.54
-29.88
-31.30
-34.02
-37.82
-41.93
-45.15
-46.28
-44.57
-39.92
-32.89
-24.39
-15.28
-6.07
3.10
12.27
21.40
30.10
37.63
43.21
46.22
46.41
43.93
39.35
33.58
27.86
23.62
22.22
24.53
30.50
39.02
48.03
55.04
57.79
54.90
46.30
33.13
17.35
1.05
-14.02
-26.78
-36.73
-43.81
-48.11
-49.94
-49.83
-48.53
-46.84
-45.16
-43.32
-40.65
-36.45
-30.49
-23.30
-15.98
-9.64
-4.69
-0.62
3.73
9.45
16.79
24.83
31.78
35.67
35.28
30.58
22.62
12.99
3.07
-6.50
-15.85
-25.49
-35.81
-46.84
-58.19
-69.31
-79.63
-88.46
-94.84
-97.40
-94.71
-86.10
-72.38
-55.95
-40.01
-27.14
-18.10
-11.59
-5.11
3.53
14.94
28.00
40.50
50.44
56.91
60.28
61.53
61.66
61.23
60.52
59.88
59.90
61.32
64.52
69.15
73.94
77.04
76.52
71.15
60.97
47.20
31.88
17.04
3.96
-7.11
-16.78
-25.99
-35.34
-44.78
-53.57
-60.65
-65.01
-65.97
-63.34
-57.38
-48.86
-38.91
-28.83
-19.82
-12.57
-7.13
-3.06
0.33
3.44
6.28
8.45
9.47
9.11
7.54
5.16
2.29
-0.98
-4.71
-8.88
-13.12
-16.63
-18.47
-18.02
-15.44
-11.63
-7.99
-5.71
-5.26
-6.14
-7.12
-6.69
-3.66
2.52
11.72
23.25
36.09
49.04
60.82
70.06
75.43
76.02
71.56
62.74
51.07
38.42
26.58
16.65
8.99
3.38
-0.62
-3.41
-5.24
-6.38
-7.25
-8.30
-9.93
-12.25
-15.06
-17.98
-20.65
-22.83
-24.25
-24.46
-22.89
-18.98
-12.70
-4.79
3.33
9.90
13.60
13.99
11.42
6.57
-0.15
-8.89
-19.94
-32.97
-46.31
-56.97
-61.59
-57.82
-45.48
-26.89
-6.00
13.10
27.66
36.89
41.72
43.82
44.58
44.56
43.53
40.82
35.92
28.72
19.61
9.32
-1.07
-10.36
-17.29
-20.73
-20.16
-15.88
-9.08
-1.64
4.45
7.76
7.78
5.04
0.73
-3.93
-8.21
-12.15
-16.23
-21.04
-26.59
-32.22
-36.62
-38.43
-36.73
-31.45
-23.34
-13.61
-3.51
5.96
14.18
20.84
25.86
29.30
31.36
32.27
32.17
31.02
28.60
24.63
19.01
11.94
3.93
-4.38
-12.38
-19.71
-26.28
-32.25
-37.96
-43.86
-50.32
-57.42
-64.56
-70.52
-73.59
-72.29
-65.98
-55.41
-42.40
-29.16
-17.39
-7.56
0.95
9.16
17.72
26.33
33.89
39.15
41.53
41.48
40.36
39.86
41.35
45.50
52.12
60.34
68.79
75.96
80.40
81.02
77.26
69.27
57.79
43.91
28.73
13.14
-2.24
-16.97
-30.64
-42.86
-53.38
-62.29
-70.24
-78.20
-87.05
-96.96
-107.11
-115.81
-121.11
-121.55
-116.58
-106.51
-92.17
-74.44
-54.15
-32.18
-9.62
12.12
31.60
47.67
59.76
67.88
72.58
74.63
75.00
74.77
75.03
76.77
80.69
86.99
95.10
103.64
110.38
112.72
108.27
95.70
75.29
48.99
19.84
-9.01
-35.04
-56.93
-74.43
-88.05
-98.69
-107.18
-114.24
-120.39
-125.87
-130.65
-134.42
-136.63
-136.65
-133.90
-127.91
-118.51
-105.81
-90.30
-72.66
-53.70
-34.06
-14.20
5.60
24.97
43.15
58.94
70.76
77.06
76.84
70.02
57.73
42.12
26.04
12.45
3.70
0.86
3.20
8.26
12.54
12.75
6.98
-4.39
-18.86
-32.83
-42.98
-47.47
-46.44
-41.56
-35.15
-29.20
-24.86
-22.43
-21.61
-22.02
-23.32
-25.37
-28.12
-31.49
-35.27
-39.02
-42.09
-43.56
-42.53
-38.35
-30.94
-20.91
-9.55
1.59
10.91
17.13
19.37
17.31
11.44
3.22
-5.01
-10.56
-11.23
-6.35
2.96
14.16
24.40
31.74
35.82
37.53
38.16
38.53
38.58
37.81
35.88
33.19
30.79
29.96
31.45
35.20
40.38
45.71
49.97
52.28
52.23
49.86
45.61
40.21
34.48
29.10
24.43
20.72
18.12
16.86
17.22
19.15
22.15
25.26
27.42
27.85
26.33
23.08
18.39
12.33
4.70
-4.61
-15.21
-25.92
-35.12
-41.17
-43.09
-40.82
-35.11
-27.12
-17.90
-8.12
1.98
12.24
22.37
31.76
39.66
45.53
49.32
51.61
53.36
55.51
58.56
62.39
66.38
69.66
71.55
71.76
70.39
67.71
63.97
59.20
53.25
46.07
37.81
28.97
20.11
11.75
4.09
-3.03
-9.94
-16.94
-24.06
-31.13
-37.78
-43.62
-48.19
-51.01
-51.51
-49.31
-44.36
-37.18
-28.83
-20.57
-13.35
-7.42
-2.28
2.97
8.98
15.64
21.93
26.22
26.92
23.10
14.86
3.28
-9.83
-22.26
-31.91
-37.12
-37.10
-32.03
-23.05
-11.96
-0.63
9.55
18.05
25.31
32.36
40.23
49.39
59.40
68.95
76.36
80.25
80.10
76.53
71.13
65.86
62.38
61.53
63.16
66.40
70.10
73.23
75.10
75.28
73.66
70.18
64.76
57.29
47.71
36.13
23.07
9.38
-3.78
-15.10
-23.58
-28.83
-31.18
-31.63
-31.30
-31.00
-31.03
-31.30
-31.50
-31.47
-31.15
-30.34
-28.43
-24.54
-17.99
-9.02
-0.47
4.03
1.56
-7.97
-21.45
-34.14
-42.16
-44.11
-41.14
-36.02
-31.23
-28.31
-27.83
-29.98
-34.83
-42.23
-51.57
-61.68
-69.89
-73.38
-70.10
-59.34
-42.15
-21.04
1.05
21.75
39.75
54.64
66.41
75.05
80.49
82.49
80.92
76.17
68.98
60.22
50.20
38.85
26.16
12.85
-0.17
-11.99
-22.01
-30.24
-37.42
-45.17
-54.73
-66.16
-77.70
-87.25
-93.02
-94.43
-92.10
-87.48
-82.39
-77.51
-72.05
-64.06
-52.90
-39.29
-24.72
-10.05
8.24
31.40
56.65
73.04
72.84
51.93
12.65
-37.26
-85.99
-122.39
-141.14
-143.77
-136.52
-125.46
-114.23
-102.97
-89.96
-74.18
-56.90
-41.69
-31.46
-26.60
-24.31
-21.07
-14.57
-4.62
7.58
20.61
33.33
45.48
57.16
68.71
79.75
89.47
96.76
100.47
99.40
92.65
80.36
64.03
46.57
31.01
19.54
12.75
9.66
8.27
6.46
2.73
-3.37
-11.28
-19.93
-28.20
-35.22
-40.64
-44.66
-48.00
-51.52
-55.96
-61.56
-68.02
-74.64
-80.62
-85.32
-88.30
-89.25
-87.85
-83.77
-76.83
-67.19
-55.48
-42.74
-30.08
-18.24
-7.38
2.91
13.27
24.03
34.85
44.71
52.31
56.61
57.38
55.26
51.44
47.16
43.12
39.33
35.39
30.84
25.68
20.38
15.59
11.70
8.46
4.99
0.22
-6.68
-16.01
-27.53
-40.92
-55.88
-71.84
-87.25
-99.10
-103.14
-95.48
-74.78
-43.91
-9.80
18.83
35.01
36.43
26.39
12.20
2.02
1.80
13.85
37.24
69.39
107.67
149.99
194.45
238.68
279.43
313.05
336.50
348.26
348.97
340.96
327.29
310.48
291.77
271.05
247.62
221.23
192.77
164.27
138.18
116.25
98.87
84.90
72.38
59.55
45.63
31.08
17.30
5.83
-2.41
-7.47
-10.45
-12.94
-16.38
-21.44
-27.79
-34.39
-40.03
-43.96
-46.20
-47.43
-48.62
-50.51
-53.33
-56.79
-60.38
-63.57
-66.11
-68.00
-69.42
-70.61
-71.69
-72.77
-73.90
-75.13
-76.51
-78.10
-79.93
-82.01
-84.25
-86.48
-88.38
-89.52
-89.43
-87.79
-84.50
-79.67
-73.45
-65.81
-56.41
-44.76
-30.45
-13.52
5.52
25.85
46.54
66.69
85.28
101.03
112.38
117.94
117.16
110.84
101.08
90.30
80.00
69.69
56.98
38.38
10.75
-27.46
-75.54
-130.34
-186.77
-238.49
-279.11
-303.37
-308.67
-295.80
-269.02
-234.78
-199.74
-169.02
-144.99
-127.62
-115.48
-106.90
-100.52
-95.31
-90.23
-84.00
-75.44
-63.90
-49.63
-33.75
-17.91
-3.41
9.25
20.36
30.69
40.76
50.57
59.46
66.44
70.71
72.03
70.86
68.12
64.88
61.93
59.67
58.13
57.05
56.17
55.20
53.94
52.24
50.02
47.26
43.97
40.17
35.80
30.79
24.98
18.32
10.77
2.43
-6.57
-15.99
-25.46
-34.46
-42.21
-47.95
-51.05
-51.23
-48.63
-43.66
-36.82
-28.47
-18.87
-8.28
2.79
13.56
23.05
30.37
35.05
37.11
37.08
35.64
33.39
30.62
27.29
23.18
18.08
12.02
5.24
-1.84
-8.72
-14.99
-20.41
-24.90
-28.56
-31.68
-34.53
-37.35
-40.23
-43.13
-45.92
-48.49
-50.91
-53.45
-56.53
-60.42
-65.07
-70.00
-74.22
-76.64
-76.28
-72.72
-66.07
-56.96
-46.19
-34.48
-22.35
-10.12
1.78
12.85
22.36
29.61
34.11
35.86
35.32
33.30
30.72
28.24
26.12
24.22
22.16
19.54
16.16
12.08
7.51
2.68
-2.35
-7.60
-13.18
-19.14
-25.37
-31.66
-37.78
-43.67
-49.42
-55.32
-61.72
-69.00
-77.40
-86.86
-96.97
-106.89
-115.58
-121.96
-125.21
-125.18
-122.33
-117.64
-112.14
-106.61
-101.41
-96.76
-92.69
-89.27
-86.92
-86.41
-88.79
-94.87
-104.89
-118.23
-133.68
-149.13
-162.20
-171.07
-175.34
-176.20
-175.72
-175.75
-176.85
-178.16
-176.68
-168.27
-149.24
-118.08
-76.22
-27.88
20.99
64.14
95.97
114.28
120.82
120.60
120.00
124.64
137.70
159.27
191.15
228.56
262.48
283.05
283.88
263.72
225.55
175.19
119.99
66.35
18.82
-18.57
-43.29
-54.97
-55.57
-48.64
-38.07
-27.09
-16.63
-8.01
-1.35
4.21
9.94
16.67
24.37
32.22
38.86
42.75
42.38
37.47
29.09
19.26
10.30
4.05
1.45
2.42
5.93
10.13
13.33
14.23
12.13
7.02
-0.45
-8.94
-16.59
-21.38
-21.57
-15.97
-4.22
13.06
34.41
57.87
81.40
103.21
121.98
136.99
148.10
155.60
159.97
161.60
160.64
157.05
150.78
142.03
131.33
119.59
107.89
97.14
87.97
80.50
74.39
68.98
63.53
57.49
50.80
43.89
37.53
32.47
29.15
27.53
27.17
27.45
27.80
27.87
27.70
27.82
29.21
33.13
40.72
52.17
66.11
79.53
88.51
89.54
81.00
63.83
41.30
17.83
-2.63
-17.78
-27.37
-32.76
-36.08
-39.57
-45.32
-55.27
-70.99
-93.25
-121.13
-151.56
-179.58
-199.79
-208.23
-203.91
-189.03
-167.55
-143.19
-117.78
-91.31
-63.30
-34.56
-7.97
12.42
23.31
23.97
16.71
5.72
-5.06
-13.62
-20.26
-26.65
-34.30
-43.33
-52.35
-59.09
-61.38
-58.19
-49.81
-37.66
-23.73
-9.82
2.86
13.90
23.39
31.54
38.30
43.32
46.23
46.94
45.90
43.89
41.68
39.57
37.44
34.97
32.16
29.61
28.34
29.20
32.39
37.21
42.32
46.26
47.79
46.07
40.59
31.29
18.86
4.79
-8.84
-20.08
-27.99
-33.09
-36.81
-40.40
-43.74
-45.08
-42.00
-32.89
-18.23
-0.53
16.81
31.18
41.69
49.04
54.55
59.03
62.37
64.05
63.95
62.94
62.73
65.07
70.93
79.99
90.90
101.80
110.92
116.89
118.89
116.52
109.77
99.04
85.15
69.24
52.64
36.61
22.16
9.89
-0.01
-7.75
-13.80
-18.79
-23.29
-27.65
-31.90
-35.72
-38.60
-39.99
-39.52
-37.09
-32.90
-27.34
-20.93
-14.13
-7.38
-1.08
4.37
8.66
11.59
13.15
13.52
12.96
11.73
9.92
7.53
4.56
1.12
-2.52
-6.01
-8.96
-11.11
-12.30
-12.42
-11.54
-9.86
-7.83
-6.10
-5.24
-5.54
-6.86
-8.71
-10.46
-11.74
-12.58
-13.43
-14.80
-16.90
-19.44
-21.63
-22.47
-21.08
-17.06
-10.53
-2.13
7.19
16.46
24.93
32.10
37.76
41.86
44.45
45.65
45.62
44.61
42.93
40.83
38.46
35.80
32.77
29.29
25.43
21.42
17.57
14.19
11.45
9.39
7.88
6.70
5.55
4.14
2.23
-0.26
-3.31
-6.79
-10.56
-14.54
-18.74
-23.18
-27.69
-31.82
-34.92
-36.30
-35.54
-32.64
-28.02
-22.37
-16.38
-10.51
-4.99
0.09
4.62
8.36
10.97
12.21
12.00
10.55
8.21
5.41
2.46
-0.46
-3.26
-5.94
-8.49
-10.97
-13.48
-16.19
-19.27
-22.82
-26.79
-31.07
-35.58
-40.33
-45.41
-50.95
-56.93
-63.16
-69.20
-74.45
-78.18
-79.71
-78.48
-74.21
-66.96
-57.09
-45.17
-31.77
-17.39
-2.41
12.81
27.72
41.57
53.47
62.61
68.58
71.48
71.79
70.20
67.33
63.59
59.31
54.74
50.24
46.22
42.91
40.33
38.07
35.53
32.13
27.60
22.09
16.10
10.22
4.88
0.15
-4.16
-8.43
-12.91
-17.48
-21.71
-24.92
-26.51
-26.24
-24.25
-21.03
-17.08
-12.66
-7.70
-1.99
4.48
11.15
16.91
20.42
20.71
17.57
11.80
4.78
-2.07
-7.77
-12.09
-15.31
-17.89
-20.05
-21.70
-22.54
-22.34
-21.23
-19.68
-18.31
-17.64
-17.84
-18.80
-20.18
-21.70
-23.26
-25.02
-27.14
-29.74
-32.69
-35.69
-38.28
-40.01
-40.50
-39.43
-36.62
-31.96
-25.46
-17.35
-7.97
2.12
12.28
21.79
30.00
36.43
40.77
43.01
43.27
41.87
39.18
35.59
31.46
27.10
22.79
18.67
14.78
11.09
7.51
4.02
0.65
-2.51
-5.40
-8.11
-10.85
-13.86
-17.30
-21.10
-24.96
-28.47
-31.31
-33.43
-35.12
-36.71
-38.40
-39.90
-40.53
-39.38
-35.80
-29.74
-21.74
-12.81
-3.97
4.05
10.81
16.20
20.13
22.53
23.31
22.55
20.48
17.52
14.03
10.29
6.44
2.58
-1.10
-4.34
-6.84
-8.42
-9.16
-9.37
-9.54
-10.14
-11.53
-13.85
-17.00
-20.78
-24.94
-29.28
-33.72
-38.25
-42.79
-47.11
-50.74
-52.96
-53.02
-50.38
-45.02
-37.50
-28.83
-20.07
-11.93
-4.49
2.61
9.92
17.58
25.16
31.75
36.44
38.79
39.07
38.11
36.81
35.74
34.96
34.14
32.89
31.08
28.88
26.63
24.59
22.82
21.16
19.39
17.36
15.02
12.45
9.82
7.21
4.68
2.15
-0.47
-3.36
-6.57
-9.91
-12.96
-15.05
-15.55
-14.02
-10.39
-4.90
1.97
9.69
17.74
25.58
32.62
38.25
42.02
43.78
43.80
42.71
41.23
39.86
38.71
37.47
35.67
32.99
29.54
25.84
22.63
20.42
19.34
18.97
18.60
17.60
15.60
12.62
8.85
4.53
-0.35
-5.85
-11.99
-18.49
-24.72
-29.88
-33.30
-34.67
-34.14
-32.11
-29.05
-25.22
-20.64
-15.20
-8.99
-2.33
4.18
9.88
14.25
16.97
17.85
16.70
13.23
7.19
-1.29
-11.46
-21.94
-30.96
-36.92
-38.92
-37.06
-32.23
-25.73
-18.72
-11.89
-5.44
0.65
6.30
11.19
14.78
16.67
16.70
15.11
12.32
8.91
5.48
2.56
0.65
0.05
0.87
2.82
5.37
7.91
9.95
11.32
12.18
13.00
14.39
17.02
21.39
27.71
35.74
44.62
53.12
59.86
63.82
64.64
62.76
59.18
55.10
51.43
48.55
46.23
43.94
41.15
37.52
32.99
27.54
21.06
13.34
4.22
-6.10
-16.93
-27.14
-35.61
-41.66
-45.32
-47.36
-48.86
-50.80
-53.67
-57.31
-61.06
-63.98
-65.18
-63.95
-59.89
-52.91
-43.20
-31.25
-17.78
-3.70
10.09
22.87
34.15
43.52
50.53
54.52
54.75
50.84
43.16
33.06
22.54
13.59
7.38
3.95
2.30
1.00
-1.01
-4.08
-7.76
-11.28
-13.97
-15.66
-16.62
-17.35
-18.31
-19.77
-21.74
-23.99
-26.04
-27.29
-27.11
-25.08
-21.13
-15.62
-9.23
-2.76
3.01
7.55
10.51
11.71
10.98
8.11
2.83
-5.05
-15.47
-28.05
-42.04
-56.56
-70.79
-84.22
-96.65
-107.87
-117.36
-124.03
-126.40
-123.07
-113.31
-97.41
-76.61
-52.64
-27.23
-1.74
22.83
45.63
65.75
82.27
94.45
102.00
105.16
104.62
101.22
95.70
88.66
80.64
72.31
64.51
58.30
54.63
54.09
56.72
61.89
68.51
75.32
81.24
85.71
88.78
90.94
92.85
94.98
97.45
100.00
102.08
103.05
102.26
99.04
92.74
82.87
69.28
52.36
33.00
12.45
-8.01
-27.43
-45.36
-61.84
-77.18
-91.74
-105.76
-119.26
-132.06
-143.83
-154.19
-162.62
-168.56
-171.48
-171.03
-167.24
-160.67
-152.36
-143.51
-135.19
-127.94
-121.74
-116.17
-110.79
-105.43
-100.24
-95.48
-91.28
-87.54
-84.04
-80.69
-77.57
-74.77
-71.99
-68.27
-62.11
-51.89
-36.65
-16.56
6.94
31.67
55.32
76.15
93.28
106.54
116.17
122.31
124.96
123.91
119.06
110.77
99.96
88.04
76.67
67.25
60.65
57.12
56.34
57.69
60.47
64.09
67.98
71.69
74.77
76.85
77.70
77.34
75.98
73.97
71.61
68.98
65.95
62.21
57.46
51.68
45.12
38.29
31.86
26.35
22.11
19.22
17.53
16.75
16.59
16.71
16.80
16.63
16.08
15.24
14.38
13.89
14.07
15.02
16.41
17.72
18.37
18.14
17.29
16.55
16.82
18.80
22.63
27.85
33.66
39.20
43.89
47.34
49.30
49.45
47.44
43.04
36.35
27.82
17.98
7.14
-4.70
-17.76
-31.91
-46.22
-58.97
-68.02
-71.61
-69.23
-61.91
-51.86
-41.83
-34.29
-30.82
-31.99
-37.47
-46.24
-56.87
-67.72
-77.25
-84.34
-88.55
-90.16
-90.01
-88.94
-87.47
-85.44
-82.17
-76.81
-68.91
-58.69
-47.08
-35.51
-25.47
-18.09
-13.97
-13.22
-15.55
-20.45
-27.09
-34.15
-39.86
-42.36
-40.22
-33.23
-22.62
-10.65
0.23
8.50
13.94
17.40
19.79
21.16
20.47
16.20
7.45
-5.21
-19.58
-32.82
-42.50
-47.63
-48.71
-47.12
-44.13
-40.29
-35.36
-28.81
-20.46
-10.77
-0.77
8.38
15.77
21.04
24.30
25.83
25.98
24.90
22.63
19.14
14.44
8.71
2.32
-4.16
-10.06
-14.79
-18.03
-19.95
-21.15
-22.55
-25.11
-29.42
-35.53
-43.01
-51.18
-59.54
-67.96
-76.63
-85.71
-94.95
-103.48
-110.01
-113.38
-112.96
-108.98
-102.36
-94.44
-86.53
-79.61
-74.11
-69.64
-64.75
-56.90
-42.83
-19.39
15.35
61.11
115.02
172.23
226.96
273.96
309.46
331.58
340.01
335.50
319.31
293.00
258.47
218.11
174.69
131.04
89.63
52.11
19.18
-9.24
-33.64
-54.50
-72.12
-86.61
-98.03
-106.54
-112.41
-115.90
-117.24
-116.50
-113.65
-108.71
-101.79
-93.14
-83.24
-72.60
-61.84
-51.52
-42.16
-34.10
-27.55
-22.55
-18.97
-16.67
-15.40
-14.93
-15.02
-15.45
-15.99
-16.43
-16.56
-16.10
-14.87
-12.75
-9.78
-6.26
-2.67
0.39
2.34
2.76
1.47
-1.47
-5.76
-11.02
-16.75
-22.56
-28.21
-33.61
-38.80
-43.80
-48.53
-52.60
-55.36
-56.08
-54.17
-49.57
-42.84
-35.01
-27.23
-20.35
-14.68
-10.01
-5.89
-1.89
2.18
6.16
9.69
12.38
13.90
14.07
12.83
10.43
7.40
4.52
2.64
2.35
3.74
6.38
9.45
12.05
13.52
13.53
12.08
9.38
5.70
1.32
-3.42
-8.11
-12.34
-15.79
-18.31
-19.92
-20.57
-19.95
-17.52
-12.75
-5.57
3.38
12.79
21.33
28.17
33.49
38.18
43.29
49.26
55.55
60.90
63.97
64.00
61.13
56.28
50.52
44.72
39.36
34.54
30.35
27.00
24.81
24.03
24.68
26.33
28.22
29.42
29.16
27.11
23.38
18.51
13.16
7.93
3.10
-1.38
-5.83
-10.70
-16.28
-22.57
-29.16
-35.35
-40.43
-43.93
-45.82
-46.32
-45.81
-44.49
-42.32
-39.14
-34.95
-30.04
-24.96
-20.27
-16.25
-12.86
-9.81
-6.98
-4.48
-2.58
-1.44
-0.86
-0.24
1.14
3.81
7.85
12.86
18.22
23.38
27.98
31.86
34.95
37.14
38.31
38.40
37.54
36.06
34.39
32.84
31.47
30.08
28.35
26.12
23.56
21.20
19.79
19.99
22.15
26.22
31.82
38.41
45.44
52.48
59.14
65.06
69.85
73.02
74.04
72.34
67.47
59.20
47.64
33.09
15.96
-3.45
-24.91
-48.11
-72.44
-96.79
-119.81
-140.20
-157.09
-170.18
-179.50
-185.06
-186.61
-183.70
-175.98
-163.49
-146.79
-126.69
-104.02
-79.49
-53.87
-28.24
-4.20
16.27
31.41
40.13
42.43
39.28
32.29
23.14
13.33
4.06
-3.74
-9.33
-12.25
-12.51
-10.60
-7.49
-4.28
-1.94
-0.95
-1.23
-2.20
-2.93
-2.53
-0.37
3.64
8.99
14.72
19.75
23.24
24.98
25.29
24.84
24.20
23.37
21.88
19.01
14.28
7.89
0.68
-6.21
-11.81
-15.65
-17.84
-18.79
-18.75
-17.76
-15.66
-12.38
-8.23
-3.82
0.17
3.29
5.53
7.18
8.55
9.66
10.35
10.38
9.87
9.38
9.79
11.82
15.58
20.39
25.00
28.12
28.96
27.55
24.54
20.81
17.01
13.39
9.88
6.41
3.22
0.81
-0.26
0.23
1.86
3.64
4.30
2.82
-1.14
-7.12
-14.06
-20.73
-26.11
-29.57
-30.93
-30.14
-27.29
-22.48
-15.96
-8.21
0.11
8.25
15.57
21.66
26.28
29.32
30.80
30.85
29.83
28.31
26.95
26.22
26.19
26.52
26.66
26.14
24.87
23.11
21.42
20.38
20.38
21.47
23.47
25.90
28.13
29.53
29.52
27.87
24.71
20.58
16.28
12.57
10.02
8.84
9.00
10.26
12.37
15.05
18.00
20.91
23.44
25.27
26.20
26.23
25.56
24.56
23.57
22.72
21.93
20.93
19.44
17.31
14.68
11.87
9.26
7.06
5.26
3.71
2.19
0.56
-1.17
-2.96
-4.72
-6.50
-8.41
-10.63
-13.26
-16.31
-19.65
-23.05
-26.16
-28.64
-30.10
-30.27
-28.97
-26.12
-21.78
-16.05
-9.14
-1.30
7.03
15.31
22.89
29.13
33.57
36.04
36.62
35.69
33.70
31.13
28.40
25.79
23.51
21.56
19.83
18.14
16.27
14.07
11.57
8.92
6.35
4.07
2.20
0.71
-0.53
-1.73
-3.18
-5.12
-7.64
-10.65
-13.79
-16.46
-18.03
-17.93
-15.95
-12.30
-7.55
-2.45
2.38
6.62
10.39
14.14
18.39
23.37
28.84
34.01
37.79
39.21
37.74
33.60
27.58
20.85
14.49
9.28
5.49
2.99
1.37
0.08
-1.44
-3.59
-6.49
-9.87
-13.13
-15.61
-16.88
-17.02
-16.61
-16.47
-17.28
-19.20
-21.78
-24.16
-25.42
-24.94
-22.53
-18.36
-12.82
-6.32
0.69
7.78
14.44
20.14
24.45
27.19
28.53
28.93
29.00
29.21
29.70
30.19
30.11
28.81
25.89
21.35
15.59
9.31
3.16
-2.36
-6.94
-10.54
-13.25
-15.28
-16.87
-18.32
-19.85
-21.59
-23.53
-25.63
-27.88
-30.30
-32.88
-35.43
-37.43
-38.15
-36.91
-33.42
-27.92
-21.19
-14.13
-7.45
-1.49
3.72
8.24
11.95
14.60
15.90
15.79
14.60
12.99
11.79
11.63
12.72
14.69
16.70
17.75
17.01
14.25
9.92
5.04
0.74
-2.23
-3.75
-4.35
-4.83
-5.89
-7.73
-10.13
-12.54
-14.41
-15.33
-15.16
-13.86
-11.48
-8.17
-4.15
0.23
4.53
8.29
11.13
12.81
13.33
12.88
11.99
11.26
11.36
12.76
15.55
19.50
24.11
28.82
33.23
37.10
40.30
42.60
43.63
42.96
40.40
36.30
31.66
27.82
26.01
26.85
30.28
35.69
42.47
50.31
59.19
69.07
79.47
89.36
97.37
102.35
103.85
102.17
98.09
92.38
85.45
77.30
67.76
56.86
45.03
33.07
21.93
12.29
4.30
-2.45
-8.77
-15.50
-23.14
-31.67
-40.57
-49.17
-56.84
-63.31
-68.57
-72.66
-75.47
-76.62
-75.68
-72.40
-67.06
-60.31
-53.08
-46.17
-39.97
-34.44
-29.33
-24.43
-19.72
-15.42
-11.82
-9.14
-7.39
-6.38
-5.84
-5.52
-5.36
-5.56
-6.46
-8.41
-11.56
-15.64
-19.94
-23.50
-25.37
-24.99
-22.48
-18.62
-14.66
-11.87
-11.10
-12.46
-15.42
-18.95
-21.98
-23.70
-23.83
-22.57
-20.56
-18.62
-17.37
-16.97
-16.80
-15.52
-11.39
-2.78
11.08
29.59
50.74
71.62
89.31
101.98
109.57
113.80
117.50
123.36
132.75
145.16
158.40
169.59
176.34
177.46
173.16
164.41
152.30
137.66
121.10
103.46
86.09
70.79
59.24
52.30
49.63
49.78
50.87
51.41
50.80
49.34
47.84
46.92
46.59
46.26
45.02
42.08
37.09
30.20
21.95
13.04
4.02
-4.83
-13.45
-21.90
-30.20
-38.19
-45.59
-52.08
-57.53
-62.10
-66.28
-70.68
-75.80
-81.78
-88.32
-94.76
-100.18
-103.65
-104.37
-101.87
-96.08
-87.45
-76.80
-65.21
-53.73
-43.15
-33.87
-25.88
-18.88
-12.45
-6.29
-0.22
5.71
11.30
16.26
20.27
23.02
24.25
23.83
21.76
18.21
13.46
7.93
2.08
-3.66
-8.94
-13.54
-17.45
-20.81
-23.84
-26.74
-29.60
-32.35
-34.91
-37.18
-39.20
-41.04
-42.76
-44.34
-45.63
-46.41
-46.47
-45.74
-44.24
-42.05
-39.25
-35.86
-31.96
-27.70
-23.43
-19.61
-16.66
-14.84
-14.16
-14.45
-15.48
-17.15
-19.50
-22.73
-27.00
-32.32
-38.44
-45.00
-51.60
-57.92
-63.81
-69.28
-74.46
-79.61
-85.07
-91.14
-98.02
-105.65
-113.65
-121.39
-128.12
-133.25
-136.56
-138.19
-138.57
-138.16
-137.38
-136.39
-135.20
-133.77
-132.03
-129.98
-127.63
-125.01
-122.11
-118.97
-115.67
-112.19
-108.39
-103.82
-97.83
-89.64
-78.71
-64.90
-48.70
-31.14
-13.55
2.70
16.49
27.10
34.23
37.90
38.45
36.40
32.41
27.19
21.46
15.77
10.46
5.66
1.23
-3.08
-7.39
-11.50
-14.75
-16.13
-14.58
-9.49
-0.98
9.93
21.57
32.08
39.95
44.35
45.29
43.40
39.60
34.82
29.77
24.83
20.11
15.55
11.07
6.60
2.12
-2.39
-6.96
-11.58
-16.14
-20.36
-23.76
-25.80
-25.98
-24.08
-20.26
-15.16
-9.79
-5.31
-2.70
-2.56
-4.90
-9.14
-14.30
-19.27
-23.05
-24.93
-24.62
-22.23
-18.39
-14.04
-10.11
-7.27
-5.47
-3.95
-1.61
2.41
8.11
14.40
19.44
21.53
19.89
15.18
9.22
4.14
1.52
1.83
4.60
8.96
14.36
20.76
28.41
37.37
47.02
56.19
63.48
67.86
69.08
67.72
64.96
62.09
60.14
59.68
60.79
63.20
66.49
70.09
73.35
75.46
75.51
72.68
66.61
57.82
47.68
38.20
31.32
28.31
29.35
33.49
39.08
44.23
47.26
47.06
43.13
35.73
25.81
14.84
4.47
-3.84
-9.25
-11.66
-11.69
-10.35
-8.77
-7.84
-8.14
-9.85
-12.76
-16.41
-20.13
-23.32
-25.57
-26.74
-27.00
-26.60
-25.73
-24.27
-21.95
-18.50
-13.95
-8.81
-3.92
-0.27
1.46
1.10
-1.03
-4.34
-8.36
-12.83
-17.74
-23.08
-28.63
-33.94
-38.44
-41.66
-43.50
-44.24
-44.41
-44.54
-45.00
-45.95
-47.28
-48.86
-50.48
-51.98
-53.17
-53.82
-53.73
-52.80
-51.12
-49.03
-47.08
-45.80
-45.55
-46.28
-47.55
-48.63
-48.67
-46.95
-43.01
-36.79
-28.65
-19.25
-9.47
-0.18
7.99
14.70
19.98
24.14
27.51
30.43
33.00
35.19
36.85
37.72
37.67
36.62
34.72
32.25
29.61
27.14
25.04
23.29
21.66
19.77
17.25
13.85
9.55
4.50
-1.01
-6.70
-12.43
-18.20
-24.08
-30.02
-35.74
-40.77
-44.52
-46.48
-46.42
-44.35
-40.57
-35.42
-29.34
-22.65
-15.61
-8.41
-1.19
5.98
13.04
19.88
26.34
32.12
36.91
40.48
42.74
43.77
43.76
42.92
41.42
39.42
37.05
34.52
32.04
29.80
27.90
26.31
24.90
23.57
22.26
20.90
19.42
17.62
15.23
12.04
8.06
3.60
-0.67
-3.95
-5.52
-4.92
-2.11
2.59
8.60
15.29
22.05
28.42
34.06
38.68
42.02
43.86
44.10
42.82
40.32
37.06
33.56
30.27
27.46
25.23
23.53
22.23
21.25
20.52
19.99
19.56
19.09
18.37
17.20
15.48
13.27
10.80
8.40
6.37
4.81
3.73
3.11
3.10
3.98
6.08
9.54
14.10
19.14
23.97
28.13
31.64
34.96
38.68
43.23
48.50
53.93
58.69
61.96
63.18
62.13
58.85
53.57
46.65
38.59
29.92
21.23
12.96
5.38
-1.44
-7.58
-13.17
-18.26
-22.84
-26.77
-29.89
-32.13
-33.52
-34.26
-34.70
-35.30
-36.42
-38.19
-40.32
-42.14
-42.77
-41.46
-37.90
-32.37
-25.69
-18.88
-12.87
-8.25
-5.24
-3.69
-3.19
-3.10
-2.60
-0.89
2.56
7.84
14.50
21.76
28.92
35.51
41.50
47.03
52.06
56.24
59.04
59.89
58.70
55.88
52.25
48.78
46.21
44.87
44.75
45.62
47.20
49.17
51.19
52.80
53.41
52.49
49.68
45.06
39.20
33.03
27.64
23.83
21.91
21.66
22.54
23.89
25.25
26.52
27.80
29.34
31.26
33.43
35.45
36.82
37.10
36.13
34.12
31.60
29.37
28.34
29.33
32.89
39.12
47.47
56.88
65.98
73.45
78.37
80.42
79.77
76.88
72.27
66.34
59.38
51.54
42.98
33.91
24.68
15.89
8.31
2.79
-0.07
-0.18
1.85
4.90
7.78
9.67
10.33
10.06
9.23
7.95
5.91
2.56
-2.56
-9.48
-17.82
-26.95
-36.30
-45.47
-54.21
-62.33
-69.62
-75.87
-80.94
-84.74
-87.21
-88.19
-87.56
-85.34
-81.84
-77.49
-72.63
-67.23
-60.93
-53.39
-44.82
-36.23
-29.24
-25.25
-24.64
-26.29
-27.82
-26.53
-20.44
-8.94
7.17
26.21
46.34
66.13
84.60
101.15
115.20
126.10
133.21
135.98
134.11
127.55
116.44
101.02
81.87
59.92
36.52
13.28
-8.32
-27.36
-43.65
-57.68
-70.29
-82.22
-93.81
-105.00
-115.35
-124.27
-131.16
-135.58
-137.38
-136.95
-135.24
-133.58
-133.36
-135.33
-139.24
-143.57
-145.80
-142.99
-132.73
-114.04
-88.07
-58.10
-28.85
-5.24
9.18
13.33
8.94
0.03
-8.37
-11.72
-7.34
5.02
23.28
43.80
62.59
76.44
83.76
84.86
81.49
76.17
71.43
69.26
70.80
76.43
85.71
97.48
110.00
121.17
128.99
132.07
129.98
123.29
113.27
101.39
88.75
75.76
62.16
47.20
30.18
10.83
-10.33
-31.81
-51.41
-66.80
-76.34
-79.81
-78.75
-75.96
-74.50
-76.33
-81.56
-88.51
-94.48
-96.87
-94.05
-85.75
-72.73
-56.40
-38.43
-20.53
-4.43
8.36
16.77
20.46
19.79
15.66
9.15
1.20
-7.37
-15.83
-23.35
-28.97
-31.88
-31.60
-28.16
-22.04
-14.10
-5.14
4.13
13.20
21.69
29.18
35.11
38.75
39.43
36.66
30.50
21.43
10.31
-1.92
-14.44
-26.63
-37.98
-47.86
-55.37
-59.42
-59.07
-53.94
-44.46
-31.89
-18.01
-4.73
6.27
13.81
17.35
16.89
13.04
6.88
-0.40
-7.67
-14.14
-19.37
-23.24
-25.71
-26.82
-26.65
-25.38
-23.39
-21.26
-19.60
-18.92
-19.53
-21.42
-24.52
-28.54
-33.10
-37.81
-42.39
-46.69
-50.65
-54.13
-56.82
-58.68
-59.42
-58.65
-56.10
-51.86
-46.35
-40.13
-33.64
-26.88
-20.46
-14.64
-9.41
-4.95
-1.95
-1.49
-4.61
-11.91
-22.88
-37.67
-55.32
-74.03
-91.78
-107.36
-120.81
-133.35
-146.96
-162.54
-181.24
-201.07
-216.99
-222.42
-212.01
-183.84
-140.31
-88.07
-24.62
44.00
107.07
153.48
176.84
177.47
160.65
133.67
99.45
63.11
27.55
-4.13
-28.86
-44.21
-49.64
-46.98
-35.85
-19.11
0.52
19.17
34.45
45.48
52.38
55.28
54.26
49.66
42.02
33.42
25.27
19.04
15.86
16.23
19.93
26.16
33.93
42.05
50.25
58.14
65.60
72.58
78.67
82.93
84.14
80.08
69.28
52.64
32.90
13.55
-2.96
-15.43
-24.24
-29.54
-30.98
-27.88
-19.79
-7.37
7.60
22.80
36.40
47.63
56.94
65.34
73.75
82.40
90.77
97.90
103.09
106.47
108.98
112.07
116.92
124.09
133.20
143.24
153.05
161.67
168.61
173.57
176.33
176.51
173.86
168.63
161.60
154.00
146.93
140.92
135.62
129.98
122.66
112.62
99.41
83.36
65.38
46.61
28.23
11.12
-4.19
-17.51
-29.04
-39.17
-48.33
-56.79
-64.54
-71.28
-76.61
-80.17
-81.80
-81.71
-80.28
-78.09
-75.66
-73.42
-71.63
-70.45
-69.92
-69.97
-70.49
-71.27
-72.16
-73.01
-73.69
-74.00
-73.82
-73.01
-71.58
-69.74
-67.77
-66.05
-64.84
-64.20
-64.00
-64.03
-64.09
-64.07
-64.03
-64.10
-64.42
-65.10
-66.09
-67.25
-68.35
-69.04
-68.91
-67.54
-64.60
-59.92
-53.54
-45.73
-36.98
-27.89
-19.01
-10.87
-3.85
1.84
6.08
8.93
10.54
11.14
10.91
10.01
8.57
6.72
4.68
2.79
1.35
0.63
0.69
1.28
1.95
2.10
1.19
-1.03
-4.44
-8.58
-12.83
-16.65
-19.81
-22.41
-24.82
-27.37
-30.22
-33.26
-36.20
-38.68
-40.34
-40.93
-40.27
-38.23
-34.81
-30.10
-24.32
-17.80
-10.95
-4.16
2.16
7.68
12.23
15.77
18.47
20.49
21.97
22.93
23.25
22.79
21.50
19.49
16.98
14.26
11.64
9.30
7.33
5.68
4.16
2.52
0.45
-2.20
-5.42
-8.98
-12.56
-15.87
-18.81
-21.50
-24.21
-27.25
-30.85
-35.07
-39.70
-44.34
-48.37
-51.09
-51.93
-50.52
-46.88
-41.35
-34.48
-26.81
-18.81
-10.78
-2.94
4.46
11.10
16.58
20.64
23.23
24.60
25.14
25.26
25.18
24.86
24.11
22.83
21.07
19.10
17.23
15.62
14.20
12.76
10.99
8.79
6.19
3.31
0.33
-2.60
-5.40
-8.02
-10.47
-12.88
-15.37
-18.16
-21.41
-25.21
-29.51
-34.01
-38.27
-41.65
-43.54
-43.41
-41.03
-36.47
-30.05
-22.26
-13.62
-4.58
4.43
12.99
20.61
26.82
31.27
33.84
34.73
34.44
33.51
32.38
31.29
30.26
29.24
28.22
27.25
26.43
25.78
25.17
24.41
23.33
21.77
19.71
17.23
14.43
11.45
8.42
5.47
2.67
0.01
-2.65
-5.57
-9.04
-13.28
-18.36
-24.05
-29.92
-35.33
-39.54
-41.92
-42.06
-39.75
-35.11
-28.36
-19.75
-9.56
1.99
14.57
27.68
40.60
52.49
62.49
70.00
74.89
77.49
78.57
79.01
79.50
80.41
81.63
82.70
82.93
81.70
78.51
73.22
66.07
57.61
48.75
40.40
33.33
27.87
23.88
20.81
17.98
14.82
11.01
6.46
1.26
-4.51
-10.73
-17.31
-24.10
-30.93
-37.64
-44.06
-50.03
-55.27
-59.29
-61.44
-61.11
-57.85
-51.63
-42.78
-31.97
-20.09
-8.14
2.89
12.18
19.19
23.77
26.20
27.11
27.30
27.49
28.14
29.33
30.89
32.56
34.09
35.33
36.24
36.81
37.00
36.71
35.78
34.05
31.44
27.90
23.41
17.97
11.65
4.52
-3.23
-11.38
-19.67
-27.80
-35.44
-42.19
-47.65
-51.39
-53.10
-52.65
-50.10
-45.67
-39.70
-32.57
-24.64
-16.28
-7.91
-0.01
6.97
12.57
16.53
18.77
19.40
18.80
17.51
16.02
14.80
14.14
14.15
14.76
15.80
16.96
17.84
18.01
17.02
14.64
10.98
6.46
1.71
-2.70
-6.47
-9.67
-12.57
-15.48
-18.49
-21.49
-24.32
-26.88
-29.33
-32.06
-35.45
-39.69
-44.58
-49.45
-53.39
-55.42
-54.85
-51.36
-45.19
-36.95
-27.50
-17.71
-8.35
-0.02
6.91
12.22
15.94
18.23
19.41
19.89
20.01
20.04
20.12
20.29
20.55
20.93
21.37
21.86
22.37
22.86
23.33
23.80
24.32
24.88
25.40
25.71
25.65
25.12
24.14
22.82
21.30
19.61
17.70
15.52
13.02
10.29
7.49
4.80
2.38
0.45
-0.77
-0.91
0.40
3.41
8.11
14.22
21.20
28.48
35.51
41.62
46.12
48.22
47.34
43.15
35.70
25.21
11.72
-5.15
-26.17
-52.07
-82.85
-117.04
-151.46
-181.50
-202.16
-209.24
-200.67
-176.99
-141.45
-99.19
-56.27
-18.48
9.40
24.34
25.70
15.62
-1.22
-18.71
-31.33
-36.19
-34.06
-28.94
-26.18
-30.01
-41.82
-60.00
-80.97
-100.85
-116.75
-127.23
-131.94
-131.16
-125.45
-115.65
-102.99
-88.83
-74.40
-60.46
-47.22
-34.47
-22.00
-9.88
1.34
10.81
17.77
21.96
23.96
24.97
26.57
30.05
35.84
43.20
50.31
54.83
54.87
49.88
41.18
31.84
25.58
25.28
31.68
42.94
55.43
65.30
70.12
69.56
64.88
57.61
48.43
36.93
22.39
4.95
-13.65
-30.43
-42.18
-46.78
-43.94
-34.97
-21.91
-6.52
10.15
27.48
44.48
59.42
69.86
73.54
69.42
58.40
43.08
26.85
12.46
1.15
-7.49
-14.67
-21.36
-27.58
-32.43
-34.75
-33.92
-30.32
-25.11
-19.74
-15.34
-12.20
-9.93
-7.67
-4.56
-0.15
5.54
12.04
18.72
24.85
29.82
33.13
34.36
33.29
29.91
24.49
17.70
10.56
4.40
0.57
0.20
3.82
11.31
21.85
34.23
47.11
59.34
70.12
78.99
85.72
90.25
92.59
92.88
91.43
88.68
85.08
80.95
76.27
70.79
64.04
55.73
45.91
35.04
23.93
13.42
4.18
-3.56
-9.87
-15.04
-19.30
-22.76
-25.43
-27.39
-28.91
-30.38
-32.16
-34.35
-36.74
-38.91
-40.45
-41.14
-41.01
-40.17
-38.61
-36.07
-32.01
-25.94
-17.53
-6.89
5.47
18.75
32.05
44.54
55.57
64.75
71.84
76.84
79.89
81.32
81.47
80.69
79.14
76.87
73.78
69.80
64.96
59.44
53.53
47.57
41.84
36.43
31.33
26.43
21.60
16.72
11.75
6.72
1.80
-2.92
-7.35
-11.57
-15.76
-20.19
-25.10
-30.58
-36.51
-42.49
-47.89
-51.98
-54.10
-53.89
-51.39
-47.02
-41.36
-35.02
-28.42
-21.83
-15.46
-9.53
-4.34
-0.13
3.07
5.51
7.59
9.71
12.07
14.58
17.02
19.14
20.90
22.38
23.74
25.01
26.03
26.51
26.20
25.02
23.09
20.74
18.31
16.13
14.34
12.89
11.67
10.45
9.03
7.26
5.14
2.87
0.80
-0.66
-1.20
-0.64
0.98
3.51
6.74
10.48
14.56
18.72
22.55
25.50
27.04
26.78
24.64
20.84
15.85
10.12
4.10
-1.91
-7.67
-12.92
-17.38
-20.80
-22.97
-23.87
-23.66
-22.58
-21.00
-19.34
-18.03
-17.43
-17.72
-18.90
-20.74
-22.92
-25.09
-27.02
-28.63
-29.97
-31.20
-32.52
-34.18
-36.31
-38.91
-41.70
-44.17
-45.72
-45.77
-44.03
-40.58
-35.80
-30.21
-24.33
-18.50
-12.92
-7.66
-2.77
1.63
5.34
8.15
9.84
10.30
9.54
7.66
4.84
1.38
-2.31
-5.73
-8.32
-9.62
-9.43
-7.84
-5.16
-1.82
1.83
5.60
9.41
13.20
16.78
19.95
22.52
24.52
26.07
27.30
28.19
28.55
28.10
26.84
25.08
23.53
22.94
23.79
26.07
29.24
32.60
35.51
37.69
39.16
40.06
40.40
39.97
38.43
35.43
30.87
24.86
17.78
10.13
2.43
-4.88
-11.48
-17.19
-21.97
-25.85
-28.92
-31.27
-33.05
-34.40
-35.49
-36.51
-37.63
-39.00
-40.65
-42.60
-44.75
-47.01
-49.28
-51.47
-53.52
-55.44
-57.18
-58.60
-59.41
-59.21
-57.56
-54.07
-48.53
-40.95
-31.65
-21.15
-10.12
0.69
10.72
19.62
27.26
33.67
38.90
42.87
45.40
46.34
45.63
43.45
40.17
36.22
32.09
28.17
24.71
21.78
19.29
17.01
14.67
11.99
8.85
5.29
1.46
-2.46
-6.39
-10.33
-14.39
-18.72
-23.44
-28.69
-34.50
-40.91
-47.74
-54.62
-60.84
-65.52
-67.76
-66.93
-62.88
-56.03
-47.28
-37.71
-28.30
-19.74
-12.28
-5.85
-0.22
4.85
9.39
13.30
16.38
18.47
19.56
19.82
19.57
19.21
19.04
19.27
19.97
21.02
22.23
23.35
24.20
24.74
24.99
25.04
24.91
24.58
23.91
22.81
21.19
19.00
16.21
12.79
8.60
3.62
-1.98
-7.77
-13.00
-16.89
-18.80
-18.46
-16.00
-11.92
-6.76
-1.02
4.93
10.89
16.70
22.15
26.96
30.87
33.63
35.16
35.53
34.94
33.67
31.99
30.08
28.02
25.81
23.46
21.05
18.77
16.82
15.32
14.23
13.29
12.18
10.63
8.59
6.18
3.69
1.32
-0.80
-2.71
-4.51
-6.33
-8.32
-10.67
-13.57
-17.13
-21.27
-25.58
-29.36
-31.76
-32.09
-30.00
-25.55
-19.17
-11.46
-3.06
5.47
13.64
21.01
27.20
31.94
35.09
36.62
36.69
35.49
33.24
30.24
26.74
23.01
19.30
15.70
12.30
9.12
6.16
3.40
0.75
-1.95
-4.89
-8.21
-11.86
-15.63
-19.20
-22.25
-24.62
-26.33
-27.64
-28.85
-30.30
-32.27
-34.97
-38.48
-42.68
-47.17
-51.33
-54.47
-55.88
-55.08
-51.80
-46.13
-38.38
-29.13
-19.02
-8.72
1.18
10.34
18.52
25.62
31.52
36.06
39.09
40.54
40.52
39.33
37.42
35.25
33.18
31.40
29.95
28.78
27.82
27.05
26.39
25.82
25.12
24.10
22.55
20.33
17.50
14.22
10.73
7.24
3.92
0.72
-2.47
-5.80
-9.49
-13.63
-18.24
-23.16
-28.02
-32.24
-35.22
-36.41
-35.51
-32.63
-28.16
-22.71
-16.89
-11.18
-5.81
-0.88
3.59
7.58
10.99
13.70
15.56
16.48
16.48
15.68
14.31
12.68
11.09
9.71
8.61
7.64
6.57
5.16
3.25
0.86
-1.85
-4.63
-7.28
-9.64
-11.79
-13.89
-16.20
-18.92
-22.09
-25.53
-29.02
-32.35
-35.51
-38.65
-41.90
-45.20
-48.14
-49.97
-49.89
-47.33
-42.27
-35.12
-26.64
-17.55
-8.36
0.81
9.99
19.25
28.40
36.94
44.16
49.43
52.37
53.09
52.12
50.21
48.07
46.11
44.35
42.54
40.38
37.72
34.64
31.37
28.22
25.30
22.59
19.82
16.67
12.86
8.26
2.94
-2.82
-8.71
-14.38
-19.62
-24.39
-28.83
-33.19
-37.68
-42.36
-47.05
-51.22
-54.16
-55.15
-53.67
-49.58
-43.19
-35.11
-26.06
-16.72
-7.62
0.86
8.44
14.93
20.19
24.21
27.05
28.86
29.82
30.13
29.96
29.48
28.79
27.98
27.01
25.83
24.36
22.61
20.65
18.61
16.61
14.65
12.61
10.33
7.68
4.61
1.19
-2.41
-6.00
-9.47
-12.77
-15.97
-19.12
-22.30
-25.58
-29.05
-32.81
-36.86
-40.98
-44.70
-47.37
-48.30
-47.00
-43.37
-37.66
-30.41
-22.22
-13.60
-4.94
3.45
11.29
18.32
24.31
29.11
32.64
34.94
36.22
36.75
36.85
36.79
36.72
36.58
36.20
35.30
33.66
31.24
28.22
24.92
21.69
18.77
16.18
13.78
11.33
8.64
5.60
2.19
-1.51
-5.40
-9.34
-13.17
-16.70
-19.78
-22.42
-24.83
-27.33
-30.25
-33.69
-37.41
-40.83
-43.18
-43.75
-42.11
-38.21
-32.37
-25.15
-17.26
-9.35
-1.97
4.53
10.03
14.53
18.13
20.95
23.12
24.73
25.86
26.52
26.73
26.47
25.71
24.52
22.99
21.29
19.59
18.00
16.50
14.96
13.16
10.91
8.10
4.81
1.29
-2.10
-5.04
-7.39
-9.21
-10.70
-12.17
-13.82
-15.71
-17.71
-19.59
-21.03
-21.78
-21.60
-20.34
-17.93
-14.38
-9.80
-4.40
1.66
8.23
15.22
22.49
29.76
36.58
42.33
46.47
48.70
49.11
48.12
46.28
44.07
41.74
39.33
36.70
33.72
30.31
26.48
22.39
18.30
14.50
11.27
8.73
6.75
4.99
2.98
0.29
-3.27
-7.62
-12.42
-17.19
-21.49
-25.04
-27.84
-30.11
-32.29
-34.80
-37.93
-41.67
-45.66
-49.29
-51.83
-52.64
-51.36
-48.01
-42.95
-36.68
-29.74
-22.52
-15.30
-8.33
-1.85
3.89
8.65
12.31
14.85
16.34
16.91
16.63
15.63
14.04
12.09
10.05
8.23
6.83
5.89
5.34
4.95
4.46
3.64
2.29
0.33
-2.24
-5.35
-8.84
-12.48
-15.96
-18.93
-21.17
-22.66
-23.63
-24.47
-25.66
-27.53
-30.16
-33.34
-36.65
-39.47
-41.21
-41.36
-39.64
-36.04
-30.83
-24.43
-17.34
-9.95
-2.57
4.59
11.28
17.28
22.30
26.23
29.02
30.78
31.69
31.89
31.49
30.62
29.43
28.08
26.75
25.56
24.50
23.52
22.51
21.39
20.12
18.73
17.24
15.68
14.06
12.33
10.40
8.12
5.37
2.12
-1.49
-5.23
-8.78
-11.94
-14.66
-17.09
-19.53
-22.21
-25.24
-28.51
-31.68
-34.30
-35.89
-36.12
-34.80
-31.91
-27.61
-22.16
-15.87
-9.11
-2.23
4.36
10.31
15.32
19.17
21.75
23.11
23.44
23.03
22.22
21.31
20.46
19.67
18.86
17.92
16.84
15.68
14.61
13.75
13.12
12.62
12.03
11.13
9.76
7.95
5.84
3.66
1.62
-0.17
-1.77
-3.36
-5.14
-7.26
-9.82
-12.79
-16.11
-19.65
-23.21
-26.52
-29.25
-31.02
-31.50
-30.45
-27.78
-23.52
-17.79
-10.76
-2.77
5.70
13.94
21.08
26.28
28.98
29.12
27.19
24.06
20.71
17.92
16.02
14.93
14.31
13.72
12.88
11.59
9.86
7.76
5.41
2.90
0.35
-2.15
-4.52
-6.70
-8.63
-10.32
-11.79
-13.13
-14.37
-15.52
-16.53
-17.36
-18.05
-18.74
-19.67
-20.94
-22.46
-23.83
-24.40
-23.47
-20.57
-15.63
-9.03
-1.51
6.13
13.21
19.36
24.41
28.34
31.12
32.62
32.75
31.51
29.18
26.23
23.24
20.65
18.74
17.48
16.69
16.11
15.51
14.72
13.63
12.19
10.42
8.40
6.25
4.07
1.89
-0.33
-2.71
-5.33
-8.22
-11.29
-14.46
-17.64
-20.91
-24.36
-28.15
-32.26
-36.53
-40.58
-43.96
-46.22
-47.03
-46.25
-43.84
-39.96
-34.83
-28.81
-22.26
-15.55
-8.99
-2.85
2.65
7.28
10.82
13.16
14.30
14.46
13.97
13.24
12.57
12.14
11.92
11.76
11.49
10.94
10.04
8.76
7.10
5.03
2.48
-0.62
-4.33
-8.71
-13.69
-19.17
-24.99
-30.98
-36.95
-42.84
-48.62
-54.44
-60.54
-67.18
-74.55
-82.71
-91.53
-100.68
-109.75
-118.25
-125.71
-131.77
-136.16
-138.72
-139.34
-137.82
-133.92
-127.52
-118.88
-108.95
-99.48
-92.94
-91.97
-98.67
-113.73
-135.80
-161.44
-185.71
-203.25
-209.72
-202.96
-183.45
-154.04
-118.86
-82.08
-46.94
-15.28
12.37
36.20
56.57
73.57
86.90
96.02
100.49
100.22
95.72
87.91
77.77
66.12
53.53
40.48
27.56
15.62
5.54
-1.93
-6.67
-9.29
-10.95
-12.76
-15.21
-17.78
-19.04
-17.18
-10.41
2.09
19.87
41.24
63.90
85.65
105.08
121.76
136.07
149.56
163.45
178.14
192.77
205.68
215.26
220.78
222.81
222.85
224.41
230.27
241.48
256.52
272.06
284.52
291.68
293.33
290.92
289.40
293.25
305.35
325.62
351.26
378.07
401.77
418.77
426.52
427.87
427.73
432.45
447.02
472.99
508.01
546.52
581.45
584.54
536.92
434.09
291.27
136.31
-4.31
-115.80
-195.91
-249.73
-284.04
-298.72
-296.01
-278.44
-251.06
-221.22
-196.04
-179.96
-173.80
-175.67
-180.03
-181.53
-177.03
-167.24
-155.91
-147.43
-144.68
-148.15
-156.44
-165.64
-172.51
-175.23
-174.41
-172.54
-172.57
-176.64
-185.46
-198.38
-212.82
-225.76
-234.25
-236.49
-232.23
-222.61
-209.55
-195.11
-180.92
-167.56
-154.98
-142.79
-130.76
-119.04
-107.93
-97.72
-88.36
-79.60
-71.08
-62.58
-54.11
-45.89
-38.29
-31.68
-26.28
-22.12
-19.06
-16.82
-15.12
-13.79
-12.72
-11.92
-11.29
-10.67
-9.79
-8.41
-6.41
-3.92
-1.17
1.48
3.73
5.46
6.62
7.28
7.44
7.09
6.21
4.86
3.24
1.53
-0.13
-1.79
-3.66
-5.92
-8.62
-11.52
-14.17
-16.00
-16.52
-15.46
-12.88
-9.07
-4.51
0.22
4.65
8.45
11.52
13.92
15.75
16.99
17.47
16.93
15.17
12.14
7.96
2.89
-2.79
-8.80
-14.86
-20.59
-25.55
-29.32
-31.58
-32.26
-31.58
-29.96
-27.94
-26.04
-24.58
-23.70
-23.31
-23.18
-23.09
-22.86
-22.54
-22.29
-22.34
-22.84
-23.82
-25.16
-26.67
-28.19
-29.60
-30.81
-31.64
-31.80
-30.98
-28.88
-25.40
-20.62
-14.84
-8.43
-1.76
4.86
11.14
16.75
21.25
24.10
24.76
22.87
18.37
11.69
3.68
-4.64
-12.37
-18.96
-24.38
-28.95
-33.16
-37.38
-41.79
-46.36
-51.03
-55.80
-60.84
-66.33
-72.40
-79.09
-86.35
-94.16
-102.61
-111.85
-121.96
-132.86
-144.32
-156.04
-167.89
-180.00
-192.62
-205.89
-219.62
-233.18
-245.63
-256.10
-263.98
-269.09
-271.50
-271.35
-268.76
-263.80
-256.57
-247.28
-236.16
-223.33
-208.75
-192.20
-173.49
-152.53
-129.38
-104.13
-76.73
-46.93
-14.36
20.94
58.07
94.72
127.39
152.15
166.00
168.08
160.25
146.63
132.15
120.82
114.55
112.89
113.80
114.85
114.06
110.22
102.55
90.43
73.40
51.58
26.19
-0.30
-24.51
-43.03
-53.36
-54.60
-47.51
-34.08
-16.69
2.55
22.23
41.60
60.31
78.04
94.28
108.37
119.73
128.12
133.76
137.24
139.33
140.70
141.71
142.43
142.75
142.58
141.96
141.06
140.05
138.93
137.45
135.19
131.73
126.85
120.61
113.32
105.37
97.06
88.52
79.68
70.38
60.48
49.95
38.85
27.54
16.64
7.07
-0.14
-4.07
-4.24
-0.67
6.18
15.55
26.63
38.77
51.41
64.02
76.10
87.10
96.61
104.46
110.66
115.41
118.86
121.02
121.73
120.83
118.27
114.22
108.98
102.86
96.02
88.45
80.02
70.58
60.13
48.81
36.94
24.88
13.03
1.81
-8.37
-17.21
-24.55
-30.54
-35.57
-40.22
-45.01
-50.21
-55.70
-60.85
-64.70
-66.21
-64.50
-59.13
-50.14
-38.02
-23.63
-8.00
7.83
22.97
36.63
48.28
57.52
64.14
68.12
69.69
69.24
67.37
64.73
61.85
59.10
56.57
54.21
51.98
49.89
48.10
46.72
45.76
45.02
44.10
42.49
39.79
35.87
30.81
24.91
18.47
11.73
4.70
-2.80
-11.15
-20.70
-31.70
-44.09
-57.33
-70.41
-81.93
-90.51
-95.03
-94.91
-90.18
-81.31
-69.04
-54.15
-37.47
-19.91
-2.49
13.70
27.60
38.44
45.84
49.90
51.06
49.93
47.18
43.32
38.80
33.95
29.03
24.29
19.93
16.10
12.80
9.99
7.52
5.21
2.81
0.12
-3.04
-6.72
-10.90
-15.47
-20.33
-25.47
-30.97
-37.02
-43.86
-51.59
-60.18
-69.21
-77.91
-85.17
-89.74
-90.51
-86.82
-78.68
-66.75
-52.19
-36.28
-20.20
-4.79
9.37
21.93
32.62
41.18
47.41
51.27
52.93
52.78
51.35
49.14
46.53
43.70
40.60
37.07
32.98
28.39
23.55
18.87
14.70
11.13
7.93
4.65
0.87
-3.57
-8.53
-13.60
-18.39
-22.69
-26.58
-30.31
-34.22
-38.57
-43.45
-48.86
-54.60
-60.28
-65.23
-68.55
-69.22
-66.43
-59.85
-49.82
-37.25
-23.37
-9.32
4.11
16.47
27.60
37.31
45.33
51.28
54.91
56.23
55.63
53.67
50.94
47.82
44.47
40.86
36.95
32.82
28.66
24.69
21.03
17.60
14.17
10.42
6.05
1.01
-4.49
-10.04
-15.20
-19.66
-23.38
-26.58
-29.63
-32.94
-36.78
-41.28
-46.39
-51.81
-56.99
-61.10
-63.22
-62.54
-58.67
-51.71
-42.27
-31.21
-19.37
-7.46
3.97
14.44
23.48
30.69
35.83
38.88
40.07
39.79
38.43
36.33
33.67
30.62
27.32
23.97
20.75
17.77
15.08
12.58
10.11
7.47
4.47
0.96
-3.10
-7.67
-12.61
-17.70
-22.74
-27.59
-32.23
-36.78
-41.47
-46.48
-51.82
-57.22
-62.06
-65.52
-66.74
-65.08
-60.22
-52.27
-41.61
-28.86
-14.73
0.06
14.67
28.25
39.99
49.22
55.59
59.11
60.14
59.25
57.07
54.14
50.88
47.52
44.20
40.96
37.76
34.51
31.07
27.30
23.07
18.29
12.90
6.92
0.50
-6.13
-12.67
-18.79
-24.28
-29.12
-33.53
-37.91
-42.69
-48.19
-54.50
-61.32
-67.99
-73.52
-76.76
-76.67
-72.60
-64.52
-52.92
-38.78
-23.13
-6.97
8.88
23.73
36.97
48.02
56.40
61.88
64.51
64.62
62.79
59.62
55.71
51.50
47.28
43.19
39.26
35.42
31.69
28.08
24.56
21.09
17.52
13.65
9.25
4.19
-1.50
-7.64
-13.94
-20.13
-25.97
-31.38
-36.44
-41.37
-46.44
-51.91
-57.88
-64.25
-70.58
-76.05
-79.67
-80.33
-77.22
-70.00
-58.99
-45.11
-29.66
-13.97
0.87
14.11
25.32
34.30
40.93
45.21
47.27
47.43
46.10
43.80
40.93
37.74
34.34
30.77
27.06
23.35
19.86
16.87
14.57
12.99
11.79
10.24
7.29
1.94
-6.36
-17.47
-30.57
-44.59
-58.74
-72.73
-86.61
-100.27
-112.88
-122.78
-127.94
-126.62
-118.07
-102.59
-81.12
-54.74
-24.40
8.98
44.04
78.73
110.49
136.79
155.77
166.78
170.35
167.88
161.09
151.60
140.55
128.64
116.15
103.15
89.80
76.56
64.05
52.98
43.74
36.28
30.17
24.92
20.39
17.10
16.10
18.60
25.49
36.84
51.81
68.72
85.32
99.08
107.50
108.33
99.86
81.22
52.76
16.30
-24.89
-66.58
-104.34
-134.66
-155.73
-167.83
-172.97
-173.97
-173.24
-171.73
-168.63
-161.79
-148.73
-127.84
-99.11
-64.40
-27.06
8.89
39.73
62.87
77.46
84.46
86.26
85.93
86.19
88.60
93.14
98.45
102.60
104.02
102.13
97.43
91.03
83.98
76.80
69.37
61.16
51.74
41.10
29.61
17.89
6.43
-4.63
-15.45
-26.33
-37.43
-48.58
-59.30
-68.89
-76.63
-81.95
-84.41
-83.80
-80.02
-73.18
-63.59
-51.83
-38.76
-25.32
-12.47
-0.97
8.74
16.61
22.83
27.78
31.81
35.21
38.03
40.10
41.11
40.71
38.65
34.93
29.83
23.94
17.99
12.71
8.55
5.56
3.33
1.16
-1.67
-5.63
-10.64
-16.17
-21.40
-25.61
-28.48
-30.20
-31.39
-32.83
-35.10
-38.47
-42.95
-48.38
-54.61
-61.42
-68.32
-74.49
-78.65
-79.50
-76.12
-68.34
-56.84
-42.86
-27.76
-12.68
1.59
14.56
25.75
34.66
40.83
44.08
44.63
43.14
40.47
37.40
34.43
31.68
29.06
26.35
23.44
20.28
16.93
13.42
9.68
5.65
1.25
-3.48
-8.36
-13.17
-17.70
-21.92
-25.96
-30.10
-34.58
-39.50
-44.73
-50.04
-55.07
-59.65
-63.73
-67.36
-70.58
-73.19
-74.75
-74.56
-71.85
-66.02
-56.88
-44.65
-30.03
-14.00
2.35
17.95
31.88
43.40
52.06
57.63
60.25
60.31
58.48
55.54
52.28
49.24
46.66
44.47
42.39
40.19
37.76
35.17
32.56
30.01
27.39
24.45
20.95
16.80
12.13
7.22
2.28
-2.58
-7.48
-12.56
-17.91
-23.55
-29.46
-35.68
-42.25
-49.28
-56.59
-63.72
-69.83
-73.87
-74.84
-72.05
-65.29
-54.93
-41.78
-26.87
-11.32
3.84
17.76
29.77
39.42
46.50
51.02
53.28
53.78
53.08
51.65
49.76
47.45
44.63
41.20
37.19
32.78
28.24
23.80
19.58
15.49
11.35
6.91
2.02
-3.34
-9.05
-14.85
-20.54
-25.96
-31.12
-36.13
-41.20
-46.47
-52.04
-57.98
-64.29
-70.89
-77.52
-83.70
-88.70
-91.53
-91.20
-87.01
-78.80
-67.08
-52.93
-37.69
-22.63
-8.70
3.52
13.77
21.92
27.91
31.74
33.48
33.34
31.61
28.62
24.66
19.95
14.67
9.03
3.23
-2.58
-8.38
-14.27
-20.44
-26.97
-33.89
-41.08
-48.45
-56.04
-64.09
-72.92
-82.76
-93.54
-104.81
-115.94
-126.32
-135.67
-144.10
-151.98
-159.69
-167.31
-174.41
-179.92
-182.25
-179.49
-169.80
-151.87
-125.34
-91.16
-51.53
-9.54
31.54
69.00
101.09
127.09
146.99
161.07
169.62
172.98
171.74
166.89
159.83
152.01
144.60
138.13
132.56
127.44
122.28
116.76
110.80
104.44
97.72
90.57
82.83
74.39
65.24
55.62
45.87
36.35
27.24
18.55
10.11
1.68
-6.92
-15.75
-24.80
-33.99
-43.34
-52.93
-62.71
-72.29
-80.82
-87.12
-89.96
-88.53
-82.79
-73.51
-62.00
-49.63
-37.38
-25.65
-14.37
-3.37
7.30
17.23
25.80
32.47
36.94
39.23
39.73
38.97
37.70
36.88
37.60
40.82
47.04
55.91
66.12
75.77
82.99
86.52
86.10
82.34
76.32
69.09
61.26
52.95
44.01
34.24
23.61
12.49
1.45
-8.87
-18.01
-25.83
-32.45
-38.10
-42.81
-46.25
-47.85
-47.07
-43.73
-38.21
-31.36
-24.12
-17.16
-10.65
-4.32
2.16
8.90
15.63
21.74
26.57
29.74
31.22
31.31
30.44
28.88
26.73
23.92
20.45
16.46
12.34
8.53
5.35
2.82
0.61
-1.88
-5.24
-9.87
-15.85
-22.86
-30.37
-37.73
-44.42
-50.16
-54.89
-58.84
-62.33
-65.79
-69.59
-74.00
-79.01
-84.14
-88.40
-90.37
-88.55
-81.89
-70.19
-54.18
-35.33
-15.41
4.02
21.80
37.25
50.07
60.16
67.52
72.36
75.02
76.10
76.30
76.27
76.34
76.41
75.96
74.28
70.83
65.51
58.74
51.29
43.88
36.83
30.00
22.83
14.70
5.27
-5.41
-16.85
-28.18
-38.42
-46.63
-52.18
-54.93
-55.37
-54.50
-53.70
-54.09
-56.22
-59.72
-63.28
-65.14
-63.65
-57.82
-47.67
-34.15
-18.72
-2.87
12.24
26.09
38.57
49.75
59.63
68.03
74.68
79.35
82.10
83.15
82.88
81.56
79.31
76.21
72.42
68.38
64.69
61.93
60.37
59.89
59.87
59.47
57.94
54.85
50.21
44.43
38.09
31.64
25.23
18.63
11.36
2.93
-6.86
-17.90
-29.76
-41.81
-53.41
-63.90
-72.59
-78.82
-81.99
-81.83
-78.42
-72.21
-63.81
-53.92
-43.24
-32.52
-22.60
-14.44
-8.78
-5.91
-5.43
-6.32
-7.29
-7.25
-5.65
-2.59
1.35
5.56
9.62
13.58
17.93
23.40
30.69
40.16
51.39
62.97
72.48
76.85
73.14
59.49
35.76
3.80
-32.98
-70.48
-104.88
-133.32
-154.16
-166.89
-171.80
-169.88
-162.67
-152.15
-140.52
-129.70
-120.86
-114.13
-108.74
-103.32
-96.59
-87.82
-77.03
-64.85
-52.19
-39.95
-28.83
-19.21
-11.27
-4.99
-0.23
3.29
5.75
7.26
7.75
7.01
4.80
1.03
-4.09
-10.10
-16.31
-22.17
-27.30
-31.64
-35.33
-38.63
-41.82
-45.03
-48.23
-51.17
-53.42
-54.34
-53.21
-49.44
-42.78
-33.57
-22.64
-11.15
-0.13
9.98
19.41
29.01
39.67
51.85
65.25
79.00
92.10
104.07
115.20
126.36
138.60
152.67
169.05
187.89
208.99
231.70
254.66
275.91
293.25
304.92
310.11
309.05
302.76
292.39
278.94
263.20
245.92
228.02
210.45
193.91
178.58
164.12
149.95
135.56
120.76
105.64
90.46
75.56
61.10
47.15
33.59
20.23
6.96
-6.15
-18.74
-30.24
-39.98
-47.46
-52.41
-54.91
-55.31
-54.09
-51.75
-48.74
-45.44
-42.07
-38.86
-35.99
-33.64
-31.95
-30.98
-30.74
-31.16
-32.18
-33.71
-35.68
-37.98
-40.47
-42.99
-45.35
-47.41
-49.11
-50.43
-51.41
-52.13
-52.68
-53.18
-53.75
-54.49
-55.51
-56.87
-58.58
-60.53
-62.49
-64.13
-65.16
-65.47
-65.18
-64.61
-64.15
-64.00
-64.12
-64.20
-63.80
-62.49
-60.01
-56.27
-51.30
-45.23
-38.29
-30.87
-23.44
-16.55
-10.63
-5.94
-2.55
-0.39
0.71
0.90
0.36
-0.66
-1.91
-3.13
-4.21
-5.16
-6.10
-7.18
-8.51
-10.17
-12.16
-14.45
-16.97
-19.61
-22.19
-24.52
-26.49
-28.13
-29.58
-31.06
-32.74
-34.69
-36.90
-39.27
-41.57
-43.50
-44.61
-44.39
-42.38
-38.30
-32.19
-24.42
-15.66
-6.70
1.77
9.26
15.54
20.50
24.08
26.20
26.78
25.78
23.36
19.81
15.60
11.15
6.76
2.57
-1.38
-5.06
-8.35
-11.15
-13.42
-15.26
-16.93
-18.74
-20.89
-23.43
-26.22
-29.03
-31.68
-34.21
-36.75
-39.54
-42.65
-45.95
-49.04
-51.37
-52.33
-51.46
-48.56
-43.69
-37.24
-29.75
-21.87
-14.25
-7.42
-1.71
2.79
6.13
8.48
10.05
10.95
11.22
10.85
9.82
8.19
6.05
3.67
1.28
-0.85
-2.54
-3.75
-4.56
-5.23
-6.08
-7.38
-9.26
-11.63
-14.23
-16.75
-18.95
-20.80
-22.39
-23.94
-25.61
-27.45
-29.46
-31.56
-33.68
-35.71
-37.42
-38.44
-38.24
-36.31
-32.32
-26.23
-18.42
-9.51
-0.32
8.49
16.42
23.30
29.11
33.95
37.84
40.72
42.47
43.02
42.48
41.07
39.13
37.00
34.94
33.07
31.43
29.98
28.65
27.38
26.01
24.31
22.03
18.97
15.04
10.38
5.34
0.38
-4.10
-7.91
-11.13
-14.07
-17.13
-20.72
-25.04
-30.15
-35.87
-41.79
-47.31
-51.75
-54.41
-54.81
-52.81
-48.65
-42.88
-36.18
-29.15
-22.15
-15.33
-8.64
-2.08
4.25
10.10
15.08
18.86
21.25
22.25
22.00
20.76
18.77
16.26
13.45
10.50
7.60
4.90
2.53
0.57
-0.98
-2.12
-2.96
-3.60
-4.21
-4.89
-5.73
-6.77
-8.04
-9.62
-11.63
-14.24
-17.53
-21.47
-25.84
-30.26
-34.15
-36.91
-37.98
-36.87
-33.40
-27.69
-20.18
-11.54
-2.54
6.18
14.14
21.12
27.06
31.97
35.89
38.85
40.88
42.05
42.48
42.30
41.63
40.53
38.96
36.89
34.26
31.12
27.53
23.58
19.34
14.86
10.23
5.48
0.72
-3.96
-8.45
-12.71
-16.69
-20.33
-23.61
-26.42
-28.79
-30.75
-32.46
-34.21
-36.24
-38.75
-41.71
-44.83
-47.50
-48.99
-48.55
-45.73
-40.38
-32.72
-23.28
-12.70
-1.67
9.23
19.50
28.83
37.04
44.05
49.85
54.49
57.97
60.27
61.47
61.65
60.96
59.58
57.61
55.08
51.98
48.38
44.39
40.23
36.14
32.25
28.57
24.92
21.07
16.84
12.17
7.14
1.98
-3.10
-7.93
-12.41
-16.57
-20.49
-24.34
-28.26
-32.42
-36.83
-41.40
-45.87
-49.79
-52.67
-54.01
-53.41
-50.71
-45.93
-39.30
-31.23
-22.21
-12.75
-3.37
5.54
13.63
20.67
26.50
31.02
34.23
36.18
37.07
37.12
36.60
35.71
34.52
32.95
30.83
28.01
24.50
20.51
16.45
12.79
9.83
7.62
5.83
4.00
1.61
-1.56
-5.46
-9.84
-14.36
-18.83
-23.20
-27.51
-31.76
-35.81
-39.43
-42.44
-44.76
-46.52
-47.85
-48.77
-49.04
-48.23
-45.91
-41.92
-36.43
-29.92
-22.98
-16.10
-9.56
-3.48
2.19
7.42
12.14
16.31
19.83
22.73
25.05
26.85
28.17
28.99
29.25
28.94
28.17
27.09
25.93
24.93
24.21
23.78
23.50
23.20
22.66
21.77
20.42
18.55
16.15
13.26
9.99
6.53
3.05
-0.34
-3.67
-7.10
-10.79
-14.82
-19.11
-23.29
-26.81
-29.05
-29.47
-27.77
-23.94
-18.25
-11.10
-2.93
5.95
15.27
24.77
34.02
42.35
49.06
53.55
55.62
55.55
54.04
51.90
49.76
47.85
45.96
43.61
40.33
35.89
30.38
24.17
17.71
11.40
5.43
-0.23
-5.66
-10.98
-16.21
-21.30
-26.16
-30.74
-35.09
-39.34
-43.69
-48.24
-53.11
-58.32
-63.83
-69.55
-75.35
-81.02
-86.31
-90.91
-94.45
-96.52
-96.62
-94.22
-88.72
-79.69
-67.03
-51.12
-32.87
-13.58
5.35
22.74
37.82
50.27
60.09
67.42
72.39
75.06
75.55
74.19
71.49
68.11
64.70
61.62
58.88
56.16
53.01
49.06
44.18
38.55
32.51
26.42
20.43
14.47
8.30
1.67
-5.62
-13.54
-21.90
-30.41
-38.78
-46.86
-54.77
-62.77
-71.26
-80.61
-91.02
-102.29
-113.78
-124.32
-132.30
-135.98
-133.90
-125.34
-110.60
-91.00
-68.51
-45.28
-23.05
-2.95
14.50
29.21
41.16
50.34
56.78
60.71
62.63
63.23
63.25
63.25
63.53
64.18
65.09
66.08
66.97
67.58
67.80
67.49
66.53
64.83
62.35
59.13
55.29
50.96
46.27
41.30
36.06
30.58
24.86
18.99
13.02
6.96
0.73
-5.81
-12.90
-20.69
-29.20
-38.21
-47.11
-54.85
-60.03
-61.23
-57.32
-47.99
-33.83
-16.31
2.67
21.27
38.13
52.50
64.11
72.94
79.05
82.51
83.47
82.29
79.49
75.73
71.60
67.54
63.79
60.42
57.30
54.31
51.25
47.99
44.45
40.65
36.67
32.53
28.17
23.37
17.92
11.70
4.80
-2.41
-9.54
-16.23
-22.42
-28.21
-33.90
-39.76
-46.00
-52.72
-59.91
-67.36
-74.50
-80.30
-83.34
-82.14
-75.68
-63.86
-47.63
-28.81
-9.50
8.51
24.12
36.92
46.98
54.48
59.54
62.18
62.52
60.92
57.94
54.27
50.45
46.79
43.32
40.01
36.79
33.78
31.16
29.02
27.33
25.78
23.93
21.36
17.80
13.23
7.76
1.57
-5.20
-12.47
-20.13
-28.07
-36.12
-44.17
-52.21
-60.31
-68.63
-77.24
-86.10
-94.88
-103.08
-109.85
-114.19
-115.03
-111.48
-103.15
-90.36
-74.15
-56.13
-38.02
-21.30
-6.93
4.59
13.16
18.83
21.77
22.31
20.99
18.53
15.73
13.22
11.30
9.90
8.65
7.14
5.12
2.58
-0.22
-2.93
-5.29
-7.28
-9.17
-11.36
-14.25
-17.98
-22.49
-27.52
-32.78
-38.05
-43.28
-48.51
-53.91
