1624791801.00
64.000000
-0.00
-0.00
-0.00
-0.00
-0.00
-0.00
-0.00
-0.00
-0.00
-0.00
0.00
0.01
0.01
-0.00
-0.03
-0.05
-0.05
0.00
0.13
0.36
0.66
1.01
1.37
1.72
2.06
2.40
2.79
3.24
3.81
4.44
5.09
5.72
6.31
6.86
7.44
8.14
9.00
10.12
11.40
12.69
13.87
14.86
15.72
16.65
17.89
19.62
22.07
25.03
28.20
31.24
33.97
36.48
39.14
42.43
46.73
52.43
59.12
66.21
73.05
79.26
84.98
90.81
97.60
106.01
116.55
128.61
141.15
153.12
163.87
173.53
183.04
194.07
205.60
219.89
237.28
257.38
278.56
297.69
310.61
313.21
302.77
278.97
244.19
201.85
155.42
107.34
58.69
9.90
-38.34
-84.94
-128.24
-167.01
-201.38
-232.77
-262.97
-293.71
-325.78
-358.46
-389.80
-416.47
-434.81
-441.70
-435.85
-417.74
-390.09
-357.09
-322.66
-290.02
-260.49
-234.25
-210.53
-188.60
-168.01
-148.68
-131.03
-115.02
-100.68
-87.25
-74.11
-60.54
-46.33
-32.36
-19.62
-9.75
-3.17
0.18
1.92
3.66
6.73
11.60
17.20
22.49
26.07
28.07
28.97
30.26
33.03
37.20
42.02
45.41
46.17
43.43
38.37
32.59
28.08
26.09
26.23
27.72
28.91
29.40
29.05
29.01
30.23
32.79
36.13
38.31
38.06
34.35
28.13
20.88
14.70
11.14
10.18
11.31
12.85
14.06
14.37
14.61
15.72
18.14
21.66
24.59
25.55
23.07
17.66
10.57
4.11
0.30
-0.38
1.69
4.54
6.87
7.56
7.29
7.26
8.57
11.62
15.02
17.26
16.43
12.53
6.42
0.46
-3.12
-3.48
-0.77
3.01
6.30
7.63
7.40
6.65
6.64
8.17
10.39
12.31
12.33
10.39
6.92
3.63
1.99
2.29
4.10
5.53
5.50
3.18
-0.36
-3.69
-5.43
-5.09
-3.89
-3.09
-4.29
-7.27
-11.21
-14.16
-14.64
-12.58
-8.76
-5.38
-3.81
-5.14
-8.54
-12.79
-16.29
-17.83
-17.50
-15.46
-12.83
-9.90
-7.19
-4.35
-1.04
2.59
6.34
8.92
9.59
7.36
2.72
-3.47
-9.47
-13.47
-14.70
-12.72
-8.71
-3.57
1.21
5.20
8.44
11.20
13.94
16.03
17.03
15.70
12.03
6.35
0.21
-4.41
-6.35
-4.95
-1.40
3.04
6.55
8.65
9.72
10.67
12.57
15.01
17.27
17.54
15.19
10.16
4.05
-0.88
-3.05
-1.52
2.55
7.81
12.21
15.02
16.34
16.97
17.93
19.04
19.91
19.10
16.20
11.15
5.36
0.80
-1.20
0.17
3.70
8.02
11.02
11.97
11.00
9.15
7.84
7.41
7.93
8.14
7.50
5.42
2.64
0.42
-0.37
0.93
3.30
5.72
6.52
5.34
2.48
-0.87
-3.18
-4.00
-3.15
-1.81
-0.61
-0.36
-0.67
-0.63
0.37
2.85
5.78
8.20
8.50
6.39
2.18
-2.77
-6.69
-8.72
-8.18
-5.93
-2.54
0.81
3.88
6.75
9.44
12.18
14.11
14.73
12.96
8.99
3.31
-2.65
-7.19
-9.46
-8.84
-6.23
-2.34
1.49
4.88
7.85
10.52
13.21
15.13
15.67
13.57
8.83
1.85
-5.71
-11.69
-14.76
-14.03
-10.54
-5.45
-0.74
2.84
5.19
6.83
8.59
10.17
11.18
10.24
7.02
1.52
-4.78
-9.84
-12.26
-11.10
-7.40
-2.41
1.83
4.58
5.79
6.19
6.82
7.60
8.29
7.60
5.16
0.79
-4.29
-8.36
-10.23
-9.15
-6.21
-2.64
-0.38
-0.04
-1.51
-3.72
-5.25
-5.71
-4.98
-4.25
-4.09
-5.15
-6.81
-7.92
-7.66
-5.37
-2.04
1.32
3.00
2.60
0.25
-2.87
-5.23
-6.20
-5.33
-3.57
-1.43
0.17
1.36
2.64
4.35
6.90
9.36
11.04
10.55
7.81
3.13
-2.13
-6.20
-8.15
-7.25
-4.42
-0.41
3.34
6.38
8.76
10.74
12.87
14.55
15.34
13.95
10.28
4.49
-2.03
-7.42
-10.54
-10.49
-8.10
-4.15
-0.18
3.27
6.13
8.62
11.21
13.25
14.20
12.76
8.80
2.54
-4.46
-10.14
-13.16
-12.59
-9.43
-4.87
-0.86
1.83
3.13
3.68
4.47
5.40
6.27
5.83
3.72
-0.21
-4.80
-8.36
-9.82
-8.48
-5.46
-1.93
0.29
0.72
-0.42
-2.10
-3.02
-2.97
-1.95
-1.22
-1.26
-2.63
-4.59
-5.92
-5.83
-3.77
-0.85
1.83
2.52
0.90
-2.68
-6.84
-9.81
-10.83
-9.49
-6.84
-3.61
-0.92
1.16
3.05
5.04
7.56
9.78
11.08
10.23
7.22
2.43
-2.79
-6.76
-8.68
-7.93
-5.40
-1.69
1.96
5.25
8.23
10.95
13.64
15.43
15.75
13.42
8.58
1.72
-5.51
-11.07
-13.77
-12.83
-9.31
-4.30
0.33
3.84
6.19
7.79
9.41
10.71
11.33
10.00
6.55
1.11
-4.86
-9.44
-11.42
-10.09
-6.58
-2.10
1.47
3.57
4.37
4.65
5.43
6.52
7.53
7.01
4.52
-0.10
-5.55
-9.93
-11.96
-10.80
-7.54
-3.49
-0.66
0.29
-0.49
-1.94
-2.66
-2.42
-1.28
-0.59
-0.99
-3.01
-5.83
-8.00
-8.52
-6.65
-3.44
-0.02
1.81
1.54
-0.65
-3.59
-5.73
-6.47
-5.39
-3.45
-1.18
0.52
1.78
3.10
4.75
7.10
9.21
10.43
9.50
6.44
1.67
-3.44
-7.20
-8.84
-7.80
-5.06
-1.38
1.93
4.60
6.84
8.98
11.55
13.87
15.35
14.61
11.49
6.18
0.12
-4.83
-7.55
-7.31
-5.10
-1.85
0.84
2.58
3.58
4.43
5.90
7.53
8.79
8.21
5.43
0.47
-5.29
-9.90
-12.12
-11.18
-8.23
-4.51
-1.92
-0.97
-1.26
-1.72
-1.05
0.65
2.90
3.98
3.15
0.03
-4.13
-7.46
-8.71
-7.19
-4.25
-1.32
-0.38
-1.79
-4.97
-8.33
-10.09
-9.79
-7.45
-4.59
-2.06
-0.73
-0.16
0.67
2.34
5.26
8.21
10.14
9.52
6.31
1.16
-4.29
-8.16
-9.63
-8.26
-5.16
-1.13
2.52
5.53
8.03
10.21
12.48
14.13
14.76
13.27
9.74
4.51
-1.08
-5.40
-7.62
-7.17
-5.01
-1.92
0.71
2.62
4.02
5.37
7.29
9.14
10.30
9.31
5.86
0.11
-6.44
-11.70
-14.30
-13.30
-9.70
-4.71
-0.31
2.73
4.34
5.13
6.06
7.03
7.82
7.15
4.70
0.37
-4.58
-8.42
-10.04
-8.82
-6.03
-3.01
-1.65
-2.38
-4.69
-7.21
-8.32
-7.70
-5.49
-3.24
-1.80
-1.96
-3.07
-3.82
-3.32
-0.93
2.21
4.94
5.47
3.50
-0.47
-4.90
-7.92
-8.79
-7.22
-4.46
-1.35
0.98
2.62
4.12
5.92
8.43
10.72
12.04
11.06
7.80
2.68
-2.87
-7.14
-9.31
-8.78
-6.51
-3.15
0.00
2.69
5.10
7.51
10.36
12.89
14.46
13.62
10.19
4.39
-2.21
-7.59
-10.48
-10.06
-7.39
-3.57
-0.38
1.69
2.87
3.87
5.61
7.69
9.52
9.49
7.11
2.27
-3.60
-8.46
-10.94
-10.12
-7.14
-3.27
-0.51
0.53
0.05
-0.92
-1.08
-0.34
1.07
1.71
0.98
-1.55
-4.86
-7.35
-7.96
-6.04
-2.86
0.24
1.32
0.03
-3.12
-6.57
-8.51
-8.40
-6.21
-3.41
-0.90
0.38
0.78
1.22
2.31
4.52
6.81
8.29
7.54
4.57
-0.06
-4.80
-7.91
-8.68
-6.76
-3.35
0.63
3.87
6.21
8.04
9.83
12.17
14.32
15.60
14.57
11.03
5.24
-1.28
-6.57
-9.44
-9.08
-6.46
-2.53
1.07
3.86
5.93
7.75
9.97
11.96
13.09
11.83
7.89
1.47
-5.74
-11.51
-14.42
-13.61
-10.31
-5.94
-2.57
-0.89
-0.78
-1.30
-1.23
-0.56
0.51
0.60
-0.75
-3.80
-7.42
-9.95
-10.31
-7.91
-4.07
-0.23
1.55
0.72
-2.35
-6.18
-8.90
-9.68
-8.14
-5.41
-2.25
0.24
2.07
3.71
5.46
7.68
9.46
10.16
8.62
4.97
-0.25
-5.59
-9.37
-10.84
-9.49
-6.31
-2.04
2.02
5.50
8.45
11.03
13.60
15.44
16.05
14.18
9.84
3.37
-3.68
-9.32
-12.33
-11.88
-8.97
-4.61
-0.56
2.59
4.86
6.70
8.82
10.77
12.05
11.30
8.29
3.11
-2.80
-7.57
-10.03
-9.43
-6.87
-3.44
-0.91
0.22
0.11
-0.44
-0.35
0.32
1.42
1.68
0.73
-1.74
-4.78
-6.97
-7.46
-5.73
-2.97
-0.36
0.36
-1.13
-4.43
-8.21
-10.80
-11.55
-10.08
-7.46
-4.29
-1.60
0.59
2.68
4.90
7.61
9.96
11.35
10.56
7.61
2.84
-2.42
-6.52
-8.60
-7.95
-5.39
-1.53
2.34
5.81
8.87
11.57
14.27
16.20
16.85
15.01
10.71
4.32
-2.58
-8.01
-10.85
-10.41
-7.83
-4.28
-1.50
0.10
0.84
1.53
3.12
5.21
7.14
7.28
5.13
0.62
-4.76
-9.01
-10.86
-9.57
-6.40
-2.68
-0.33
0.20
-0.75
-2.06
-2.40
-1.69
-0.11
0.92
0.86
-0.76
-3.07
-4.71
-4.84
-2.91
-0.06
2.60
3.37
1.93
-1.38
-5.29
-8.16
-9.33
-8.30
-6.00
-2.92
-0.09
2.43
4.87
7.30
9.95
11.90
12.57
10.86
6.90
1.22
-4.70
-9.07
-11.00
-9.89
-6.83
-2.73
0.85
3.50
5.44
7.17
9.37
11.49
12.89
12.06
8.67
2.86
-3.82
-9.26
-12.12
-11.56
-8.69
-4.70
-1.47
0.43
1.20
1.60
2.63
4.05
5.43
5.31
3.25
-0.89
-5.81
-9.68
-11.26
-9.81
-6.50
-2.66
-0.30
-0.02
-1.65
-4.04
-5.63
-5.90
-4.54
-2.62
-0.65
0.56
1.29
2.22
3.71
6.07
8.29
9.55
8.55
5.32
0.38
-4.75
-8.32
-9.55
-8.00
-4.80
-0.87
2.42
4.78
6.56
8.24
10.49
12.68
14.17
13.45
10.21
4.59
-1.91
-7.30
-10.30
-10.05
-7.53
-3.72
-0.28
2.31
4.13
5.69
7.63
9.41
10.48
9.46
6.16
0.74
-5.31
-10.02
-12.18
-11.06
-7.87
-3.90
-1.13
-0.18
-0.90
-2.29
-3.01
-2.77
-1.51
-0.44
-0.05
-0.90
-2.30
-3.10
-2.59
-0.33
2.47
4.68
4.62
2.09
-2.40
-7.32
-10.81
-12.08
-10.69
-7.72
-3.93
-0.51
2.39
5.04
7.68
10.62
12.98
14.07
12.61
8.63
2.60
-3.87
-8.80
-11.15
-10.25
-7.26
-3.22
0.24
2.69
4.37
5.87
7.91
9.93
11.29
10.46
7.16
1.52
-4.88
-9.97
-12.49
-11.69
-8.80
-5.14
-2.65
-1.89
-2.64
-3.86
-4.23
-3.55
-1.85
-0.42
0.20
-0.59
-2.12
-3.25
-3.21
-1.42
1.13
3.54
4.26
3.05
0.19
-3.13
-5.40
-6.06
-4.66
-2.17
0.91
3.54
5.67
7.60
9.52
11.81
13.67
14.59
13.38
10.03
4.88
-0.75
-5.16
-7.46
-6.98
-4.63
-1.22
1.84
4.21
6.05
7.79
10.00
12.03
13.20
11.99
8.12
1.77
-5.43
-11.32
-14.48
-14.06
-11.22
-7.30
-4.35
-3.03
-3.24
-4.06
-4.25
-3.72
-2.50
-1.82
-2.05
-3.60
-5.62
-6.88
-6.64
-4.44
-1.46
1.20
1.88
0.32
-3.12
-7.08
-9.89
-10.86
-9.50
-6.78
-3.25
0.02
2.92
5.68
8.45
11.51
14.01
15.39
14.41
11.09
5.73
-0.29
-5.21
-8.04
-7.96
-5.81
-2.31
1.10
3.97
6.31
8.40
10.71
12.61
13.58
12.26
8.51
2.50
-4.26
-9.80
-12.82
-12.43
-9.64
-5.60
-2.23
-0.19
0.52
0.63
1.16
2.02
2.99
2.74
0.88
-2.83
-7.22
-10.60
-11.76
-9.92
-6.22
-2.00
0.62
0.89
-1.21
-4.48
-7.21
-8.49
-7.62
-5.35
-2.12
1.03
3.97
6.92
9.94
13.20
15.67
16.63
14.80
10.29
3.63
-3.52
-9.16
-12.16
-11.73
-8.80
-4.26
0.33
4.43
7.98
11.15
14.28
16.52
17.18
14.86
9.50
1.53
-7.14
-14.13
-17.83
-17.27
-13.65
-8.49
-4.18
-1.75
-1.40
-2.31
-3.09
-3.28
-2.52
-1.72
-1.16
-1.37
-1.77
-1.49
-0.06
2.76
5.69
7.69
7.20
4.22
-0.59
-5.54
-8.77
-9.56
-7.65
-4.38
-0.71
2.09
4.03
5.63
7.41
9.86
12.06
13.21
11.85
7.90
1.86
-4.53
-9.21
-11.08
-9.61
-6.14
-2.00
0.97
2.36
2.58
2.55
3.38
4.84
6.51
6.90
5.58
2.39
-1.51
-4.60
-6.02
-5.27
-3.52
-1.77
-1.45
-2.63
-4.74
-6.61
-6.96
-5.73
-3.09
-0.40
1.70
2.55
2.68
3.04
4.14
6.31
8.39
9.40
7.96
4.20
-1.04
-6.01
-8.89
-9.11
-6.71
-3.37
-0.30
1.19
1.34
1.13
1.55
3.41
5.82
7.75
7.46
4.65
-0.18
-5.23
-8.45
-9.00
-6.76
-3.50
-0.67
0.18
-0.74
-2.33
-3.14
-1.93
0.78
4.10
6.02
5.80
3.23
-0.33
-3.11
-4.07
-2.78
-0.66
1.00
0.56
-1.96
-5.66
-8.93
-10.14
-9.13
-6.15
-2.80
0.10
1.80
2.79
3.94
5.61
7.96
9.69
9.93
7.52
2.96
-2.62
-7.34
-9.45
-8.63
-5.18
-0.95
2.83
4.92
5.60
5.79
6.33
7.87
9.52
10.37
8.92
5.15
-0.34
-5.74
-9.09
-9.61
-7.16
-3.49
-0.06
1.43
1.00
-0.44
-1.49
-0.83
1.22
3.92
5.42
4.98
2.40
-1.01
-3.51
-4.14
-2.57
-0.31
1.27
0.53
-2.39
-6.46
-9.92
-11.08
-9.82
-6.52
-2.96
-0.03
1.45
2.10
2.91
4.44
6.96
9.27
10.45
9.21
5.75
0.88
-3.80
-6.63
-7.14
-5.27
-2.47
0.28
1.80
2.20
2.19
2.49
3.78
5.36
6.56
6.02
3.66
-0.10
-3.77
-5.71
-5.37
-2.82
0.22
2.39
2.27
0.18
-2.66
-4.68
-4.48
-2.40
0.79
3.16
3.93
2.76
0.70
-0.79
-1.04
0.25
1.71
2.34
0.90
-2.25
-6.03
-8.83
-9.23
-7.32
-3.70
-0.21
2.15
2.67
2.11
1.71
2.27
4.20
6.22
7.24
5.81
2.15
-2.70
-6.85
-8.46
-7.27
-3.73
0.13
2.95
3.60
2.70
1.66
1.72
3.69
6.50
8.86
8.81
6.00
0.93
-4.57
-8.36
-9.45
-7.50
-3.95
0.02
2.88
4.48
5.32
6.14
7.63
9.17
10.07
8.89
5.41
-0.11
-6.09
-10.55
-12.37
-10.96
-7.66
-3.79
-1.24
-0.48
-1.20
-2.32
-2.56
-1.86
-0.44
0.26
-0.38
-2.83
-6.13
-8.72
-9.45
-7.52
-3.99
-0.11
2.11
2.02
-0.26
-3.48
-5.92
-6.83
-5.71
-3.57
-1.01
0.98
2.48
4.02
5.94
8.59
11.01
12.46
11.58
8.34
3.13
-2.58
-7.00
-9.19
-8.47
-5.73
-1.67
2.32
5.85
8.93
11.67
14.40
16.31
16.83
14.68
9.88
2.79
-4.90
-11.06
-14.33
-13.79
-10.49
-5.62
-1.19
1.98
3.77
4.75
5.85
6.92
7.73
7.01
4.49
0.07
-4.96
-8.85
-10.47
-9.15
-6.09
-2.57
-0.53
-0.51
-2.28
-4.70
-6.30
-6.65
-5.58
-4.23
-3.11
-2.94
-3.21
-2.99
-1.69
1.11
4.25
6.68
6.73
4.17
-0.59
-5.97
-10.03
-11.77
-10.52
-7.26
-2.78
1.53
5.29
8.57
11.52
14.52
16.74
17.60
15.83
11.41
4.75
-2.53
-8.39
-11.61
-11.34
-8.53
-4.16
0.09
3.62
6.37
8.67
11.08
13.04
14.04
12.76
9.02
2.98
-3.82
-9.35
-12.30
-11.86
-9.15
-5.49
-2.92
-2.11
-2.94
-4.40
-5.14
-4.92
-3.76
-2.97
-3.08
-4.63
-6.83
-8.34
-8.28
-6.05
-2.76
0.43
1.76
0.87
-1.94
-5.35
-7.71
-8.41
-7.03
-4.58
-1.61
0.89
2.95
4.94
7.09
9.74
11.97
13.16
12.04
8.57
3.10
-2.98
-7.82
-10.35
-9.68
-6.60
-1.86
2.95
7.16
10.56
13.23
15.57
17.01
17.12
14.72
9.84
2.81
-4.72
-10.70
-13.81
-13.19
-9.91
-5.13
-0.77
2.46
4.51
5.90
7.42
8.75
9.49
8.31
4.98
-0.46
-6.54
-11.30
-13.48
-12.31
-9.05
-5.09
-2.53
-2.03
-3.40
-5.50
-6.80
-6.88
-5.60
-4.18
-3.20
-3.37
-4.14
-4.48
-3.71
-1.26
1.87
4.73
5.70
4.46
1.21
-2.77
-5.81
-7.11
-6.04
-3.52
-0.20
2.70
4.98
6.90
8.75
11.00
12.91
13.90
12.64
9.04
3.38
-2.90
-7.94
-10.66
-10.26
-7.61
-3.53
0.46
3.83
6.55
8.86
11.25
13.13
14.04
12.71
9.07
3.30
-3.12
-8.29
-11.03
-10.52
-7.74
-3.74
-0.27
2.13
3.47
4.38
5.66
6.96
7.87
6.98
3.97
-1.22
-7.19
-11.97
-14.20
-13.01
-9.53
-5.17
-2.14
-1.25
-2.45
-4.63
-6.18
-6.57
-5.56
-4.34
-3.47
-3.68
-4.40
-4.57
-3.51
-0.75
2.55
5.31
5.84
3.90
-0.14
-4.81
-8.30
-9.76
-8.58
-5.76
-1.99
1.46
4.30
6.71
8.91
11.34
13.28
14.23
12.95
9.39
3.82
-2.35
-7.27
-9.85
-9.24
-6.31
-1.88
2.44
6.08
8.98
11.37
13.73
15.43
15.95
13.97
9.45
2.68
-4.71
-10.61
-13.70
-13.12
-9.91
-5.21
-0.94
2.19
4.10
5.30
6.63
7.87
8.73
7.95
5.27
0.59
-4.78
-9.07
-11.06
-10.00
-7.01
-3.37
-1.09
-0.80
-2.32
-4.54
-5.95
-6.15
-5.04
-3.91
-3.38
-4.18
-5.67
-6.69
-6.40
-4.20
-1.12
1.79
2.82
1.65
-1.42
-5.05
-7.64
-8.59
-7.59
-5.74
-3.63
-2.19
-1.18
0.05
1.94
4.89
7.89
10.06
9.93
7.30
2.51
-2.99
-7.33
-9.45
-8.52
-5.35
-0.66
4.09
8.31
11.84
14.65
17.02
18.29
18.06
15.32
10.28
3.41
-3.73
-9.25
-12.08
-11.48
-8.38
-3.72
0.86
4.75
7.82
10.27
12.59
14.21
14.71
12.83
8.50
1.91
-5.37
-11.27
-14.43
-13.92
-10.76
-6.18
-2.21
0.35
1.46
1.82
2.50
3.44
4.42
4.07
1.96
-2.13
-6.97
-10.79
-12.36
-10.88
-7.46
-3.33
-0.42
0.69
0.15
-1.04
-1.56
-1.22
-0.02
0.78
0.65
-0.92
-3.16
-4.77
-4.87
-2.86
0.19
3.18
4.33
3.24
0.18
-3.54
-6.30
-7.49
-6.80
-5.37
-3.81
-3.01
-2.71
-2.16
-0.88
1.61
4.33
6.46
6.56
4.47
0.48
-4.10
-7.64
-9.30
-8.45
-5.89
-2.16
1.55
4.94
8.05
10.89
13.70
15.62
16.09
13.99
9.44
2.92
-3.97
-9.28
-11.90
-11.07
-7.76
-2.96
1.60
5.25
7.91
9.83
11.64
12.87
13.15
11.28
7.16
1.00
-5.73
-11.09
-13.90
-13.31
-10.26
-5.77
-1.54
1.80
4.25
6.21
8.35
10.19
11.21
10.02
6.35
0.31
-6.55
-12.10
-14.85
-13.83
-10.06
-4.87
-0.38
2.53
3.76
4.06
4.56
5.28
6.03
5.48
3.16
-1.15
-6.27
-10.38
-12.17
-10.74
-7.11
-2.51
1.02
2.71
2.55
1.46
0.80
0.87
1.77
2.24
1.76
-0.22
-2.88
-4.81
-5.02
-2.88
0.39
3.46
4.36
2.62
-1.37
-6.09
-9.64
-11.19
-10.29
-8.08
-5.30
-3.08
-1.41
0.16
1.95
4.36
6.54
7.85
7.06
4.21
-0.33
-5.19
-8.76
-10.28
-9.20
-6.46
-2.69
0.87
3.95
6.64
9.08
11.64
13.59
14.48
13.14
9.58
4.08
-2.02
-6.98
-9.77
-9.53
-7.06
-3.06
0.98
4.49
7.35
9.69
11.95
13.54
14.03
12.22
8.07
1.81
-5.11
-10.75
-13.86
-13.46
-10.34
-5.37
-0.28
4.20
7.80
10.67
13.26
15.03
15.55
13.60
9.09
2.28
-5.24
-11.33
-14.54
-13.90
-10.44
-5.44
-1.01
1.95
3.33
3.79
4.38
5.08
5.66
4.80
2.08
-2.62
-7.99
-12.07
-13.58
-11.75
-7.83
-3.26
-0.16
0.82
-0.07
-1.62
-2.34
-1.95
-0.57
0.38
0.20
-1.69
-4.43
-6.53
-6.92
-4.90
-1.58
1.82
3.37
2.58
-0.28
-3.85
-6.44
-7.38
-6.37
-4.59
-2.70
-1.63
-1.15
-0.53
0.70
3.00
5.42
7.16
6.82
4.31
0.01
-4.74
-8.27
-9.85
-8.98
-6.62
-3.44
-0.60
1.73
3.81
5.92
8.49
10.81
12.31
11.73
8.97
4.26
-1.10
-5.39
-7.61
-6.99
-4.34
-0.35
3.53
6.81
9.45
11.54
13.51
14.74
14.86
12.75
8.49
2.36
-4.21
-9.41
-12.18
-11.72
-8.92
-4.67
-0.60
2.68
5.10
6.92
8.76
10.11
10.58
8.90
4.91
-1.22
-7.98
-13.34
-15.96
-14.91
-11.22
-6.08
-1.48
1.78
3.65
4.74
6.03
7.35
8.44
7.90
5.38
0.79
-4.51
-8.55
-10.08
-8.32
-4.53
-0.10
2.89
3.83
3.03
1.64
1.11
1.58
2.83
3.30
2.29
-0.69
-4.63
-7.84
-9.10
-7.62
-4.47
-0.89
1.18
1.18
-0.64
-3.07
-4.55
-4.66
-3.29
-1.74
-0.70
-0.94
-1.96
-2.67
-2.31
-0.27
2.47
4.92
5.46
3.78
0.22
-3.93
-7.00
-8.36
-7.60
-5.78
-3.53
-1.81
-0.54
0.79
2.49
4.90
7.05
8.24
7.17
3.84
-1.30
-6.86
-11.09
-13.12
-12.30
-9.47
-5.26
-0.98
2.96
6.44
9.35
11.89
13.28
13.12
10.49
5.70
-0.69
-7.13
-11.83
-13.84
-12.51
-8.84
-3.72
1.24
5.42
8.72
11.30
13.70
15.39
16.00
14.32
10.32
4.20
-2.60
-8.17
-11.33
-11.20
-8.66
-4.59
-0.61
2.69
5.30
7.49
9.80
11.65
12.51
11.05
7.13
1.00
-5.76
-11.06
-13.57
-12.39
-8.61
-3.41
1.22
4.55
6.54
7.76
9.12
10.32
10.98
9.69
6.11
0.24
-6.44
-11.82
-14.45
-13.36
-9.63
-4.58
-0.36
2.19
3.00
2.90
3.11
3.72
4.62
4.49
2.85
-0.63
-4.88
-8.18
-9.39
-7.72
-4.24
-0.17
2.58
3.42
2.50
0.84
-0.22
-0.44
0.21
0.53
0.02
-1.81
-4.14
-5.70
-5.64
-3.45
-0.31
2.56
3.33
1.65
-2.07
-6.33
-9.32
-10.29
-8.93
-6.47
-3.75
-1.87
-0.76
0.23
1.55
3.73
5.94
7.53
7.20
4.88
0.90
-3.48
-6.68
-8.06
-7.14
-4.90
-1.95
0.60
2.63
4.44
6.25
8.39
9.98
10.39
8.41
4.14
-1.86
-8.01
-12.39
-14.07
-12.49
-8.76
-3.84
0.73
4.46
7.39
9.72
11.89
13.25
13.34
11.08
6.64
0.53
-5.66
-10.05
-11.74
-10.24
-6.79
-2.47
1.09
3.52
5.11
6.41
8.17
9.88
10.96
9.96
6.63
1.18
-4.87
-9.51
-11.57
-10.34
-6.99
-2.72
0.73
2.92
4.17
5.22
6.91
8.70
9.91
8.90
5.35
-0.47
-6.82
-11.47
-13.11
-11.15
-7.04
-2.30
1.09
2.70
3.01
3.14
4.27
6.13
8.11
8.49
6.67
2.55
-2.46
-6.40
-8.04
-6.69
-3.60
-0.08
2.08
2.51
1.72
0.88
1.27
2.80
5.00
6.18
5.60
2.84
-1.02
-4.29
-5.83
-4.91
-2.67
-0.26
0.61
-0.32
-2.42
-4.33
-4.58
-3.14
-0.50
1.52
1.96
0.19
-2.80
-5.30
-6.10
-4.48
-1.65
1.08
1.82
0.25
-2.96
-6.26
-7.87
-7.42
-5.10
-2.60
-0.90
-0.84
-1.78
-2.42
-1.87
0.43
3.27
5.45
5.30
2.69
-1.67
-6.13
-8.81
-9.14
-7.03
-3.90
-0.69
1.52
2.89
4.13
5.69
8.00
10.04
11.01
9.58
5.83
0.43
-5.00
-8.66
-9.82
-8.19
-5.03
-1.23
1.94
4.34
6.33
8.13
10.11
11.36
11.29
8.78
4.08
-2.06
-7.96
-11.73
-12.62
-10.36
-6.35
-1.73
1.97
4.50
6.27
7.81
9.74
11.35
11.94
10.12
5.89
-0.19
-6.36
-10.55
-11.80
-9.79
-6.03
-1.88
1.03
2.51
3.16
3.87
5.50
7.47
9.05
8.71
6.16
1.70
-3.15
-6.52
-7.55
-5.93
-3.13
-0.38
0.80
0.43
-0.65
-1.27
-0.29
1.86
4.44
5.65
4.85
1.87
-1.99
-4.97
-6.04
-4.70
-2.27
0.02
0.60
-0.56
-2.54
-3.95
-3.38
-1.08
2.19
4.47
4.83
2.82
-0.37
-3.00
-3.98
-2.69
-0.35
1.89
2.51
1.49
-0.34
-1.67
-1.24
0.64
3.24
4.72
4.31
1.71
-1.82
-4.54
-5.41
-3.95
-1.59
0.34
0.15
-2.19
-5.77
-8.93
-9.96
-8.67
-5.44
-2.04
0.49
1.32
1.04
0.83
1.38
3.15
5.00
5.97
4.73
1.49
-2.85
-6.66
-8.36
-7.71
-4.99
-1.83
0.81
2.04
2.33
2.67
3.65
5.67
7.52
8.17
6.24
1.93
-3.74
-8.88
-11.55
-11.26
-8.18
-4.03
-0.03
2.58
3.99
5.01
6.27
8.27
10.05
10.78
9.14
5.25
-0.13
-5.27
-8.33
-8.68
-6.26
-2.61
1.11
3.57
4.84
5.60
6.52
8.19
9.71
10.28
8.48
4.37
-1.32
-6.81
-10.14
-10.60
-8.13
-4.45
-0.92
0.96
1.27
0.94
1.05
2.56
4.77
6.75
6.70
4.22
-0.34
-5.24
-8.38
-8.78
-6.21
-2.42
1.06
2.55
2.12
0.83
0.14
1.29
3.79
6.64
7.85
6.65
2.99
-1.58
-5.01
-6.16
-4.52
-1.59
1.17
2.01
0.81
-1.50
-3.41
-3.45
-1.73
1.09
3.11
3.47
1.72
-1.04
-3.17
-3.72
-2.16
0.22
2.29
2.50
0.83
-1.98
-4.53
-5.39
-4.51
-2.25
-0.22
0.79
0.13
-1.44
-2.68
-2.78
-1.25
0.76
2.21
1.61
-1.03
-4.89
-8.38
-9.80
-8.83
-5.71
-2.14
0.84
2.22
2.41
2.43
2.97
4.57
6.23
7.09
5.79
2.48
-2.10
-6.36
-8.64
-8.50
-5.92
-2.32
1.36
4.04
5.86
7.40
9.04
11.10
12.50
12.40
9.57
4.29
-2.43
-8.66
-12.35
-12.83
-10.09
-5.91
-1.66
1.13
2.47
3.13
3.99
5.82
7.86
9.27
8.47
5.29
0.16
-5.20
-8.81
-9.75
-7.71
-4.21
-0.54
1.73
2.56
2.69
3.14
4.88
7.27
9.39
9.43
6.90
1.97
-3.66
-7.79
-9.20
-7.37
-3.79
-0.02
2.07
2.23
1.26
0.54
1.44
3.68
6.41
7.59
6.31
2.31
-2.92
-7.20
-9.09
-7.75
-4.50
-0.79
1.38
1.59
0.45
-0.71
-0.41
1.31
3.92
5.58
5.41
2.96
-0.62
-3.55
-4.72
-3.52
-1.32
0.51
0.21
-2.23
-5.87
-8.95
-9.74
-8.12
-4.66
-1.31
0.84
1.06
0.21
-0.30
0.35
2.51
4.76
5.83
4.21
0.16
-5.15
-9.75
-11.75
-10.82
-7.35
-3.26
0.21
1.99
2.48
2.75
3.55
5.41
7.27
8.21
6.84
3.30
-1.60
-6.21
-8.80
-8.95
-6.72
-3.61
-0.59
1.30
2.30
3.20
4.51
6.66
8.63
9.55
8.11
4.44
-0.65
-5.47
-8.15
-8.11
-5.35
-1.48
2.29
4.64
5.65
6.05
6.57
7.85
9.08
9.45
7.56
3.45
-2.20
-7.65
-10.96
-11.43
-8.97
-5.20
-1.42
0.92
1.85
2.18
2.82
4.57
6.70
8.33
7.81
4.87
-0.09
-5.36
-8.89
-9.73
-7.57
-3.95
-0.25
1.95
2.63
2.62
3.02
4.79
7.24
9.41
9.45
6.90
2.02
-3.44
-7.32
-8.52
-6.64
-3.27
0.13
1.84
1.76
0.75
0.13
1.14
3.37
5.99
7.11
5.98
2.48
-2.03
-5.63
-7.19
-6.13
-3.75
-1.28
-0.33
-1.00
-2.59
-3.84
-3.51
-1.82
0.65
2.15
1.92
-0.39
-3.68
-6.24
-7.02
-5.39
-2.56
0.22
1.23
0.22
-2.15
-4.49
-5.24
-4.20
-1.65
0.75
2.15
1.81
0.45
-0.65
-0.65
0.97
3.06
4.54
3.89
1.09
-3.10
-7.13
-9.27
-9.14
-6.77
-3.66
-0.70
1.16
2.18
3.13
4.47
6.52
8.22
8.73
6.83
2.77
-2.57
-7.47
-10.17
-10.17
-7.51
-3.75
0.06
2.65
4.09
5.01
5.99
7.60
9.10
9.87
8.68
5.56
0.99
-3.62
-6.60
-7.34
-5.54
-2.47
0.95
3.45
4.98
6.06
7.24
9.09
10.79
11.58
9.98
5.91
-0.14
-6.45
-10.96
-12.62
-10.95
-7.32
-2.98
0.40
2.46
3.63
4.61
6.26
8.04
9.36
8.75
5.91
1.07
-4.31
-8.31
-9.92
-8.59
-5.60
-2.14
0.18
1.13
1.28
1.64
3.22
5.54
7.76
8.02
5.70
0.84
-4.91
-9.28
-10.92
-9.18
-5.49
-1.35
1.30
2.10
1.68
1.25
2.04
3.81
5.90
6.53
5.02
1.18
-3.63
-7.43
-8.91
-7.30
-3.79
0.32
3.10
4.02
3.42
2.37
2.17
2.84
4.07
4.34
3.03
-0.25
-4.41
-7.74
-9.06
-7.61
-4.49
-0.93
1.14
1.17
-0.59
-2.95
-4.38
-4.50
-3.27
-2.03
-1.48
-2.34
-4.00
-5.23
-5.14
-3.06
0.04
3.15
4.58
3.95
1.52
-1.54
-3.71
-4.56
-3.89
-2.87
-2.07
-2.25
-2.96
-3.23
-2.41
0.06
3.16
5.92
6.66
5.04
1.30
-3.25
-6.87
-8.74
-8.25
-6.32
-3.55
-1.05
1.09
3.19
5.42
8.09
10.24
11.20
9.70
5.82
0.02
-6.15
-10.85
-13.06
-12.02
-8.60
-3.55
1.62
6.29
10.25
13.46
16.23
17.87
17.98
15.49
10.53
3.50
-4.03
-10.05
-13.33
-12.96
-9.84
-4.94
-0.04
4.09
7.25
9.65
11.85
13.39
13.87
12.07
7.89
1.51
-5.54
-11.23
-14.19
-13.41
-9.81
-4.46
0.72
4.93
7.99
10.25
12.34
13.77
14.03
11.75
6.78
-0.58
-8.53
-14.72
-17.58
-16.21
-11.81
-5.93
-0.89
2.35
3.69
3.93
4.30
4.88
5.53
4.88
2.44
-2.12
-7.61
-12.16
-14.36
-13.15
-9.46
-4.51
-0.39
2.02
2.58
2.12
1.92
2.23
3.06
3.14
1.92
-1.09
-4.91
-7.92
-8.90
-7.03
-3.45
0.46
2.55
2.12
-0.66
-4.43
-7.34
-8.63
-7.92
-6.40
-4.78
-4.04
-3.90
-3.53
-2.29
0.37
3.50
6.19
6.88
5.33
1.82
-2.29
-5.34
-6.58
-5.59
-3.42
-0.75
1.31
2.81
4.30
6.19
8.92
11.50
13.05
12.05
8.37
2.43
-4.12
-9.27
-11.87
-11.20
-8.22
-3.83
0.44
4.07
7.05
9.57
12.12
14.07
14.98
13.68
10.12
4.53
-1.70
-6.75
-9.57
-9.30
-6.81
-2.89
0.93
4.12
6.64
8.73
10.93
12.72
13.67
12.50
9.05
3.37
-3.20
-8.78
-12.07
-12.06
-9.53
-5.41
-1.47
1.58
3.58
4.94
6.40
7.60
8.18
6.83
3.32
-2.29
-8.56
-13.48
-15.71
-14.30
-10.29
-4.90
-0.18
3.07
4.69
5.34
6.06
6.83
7.56
7.03
4.90
0.94
-3.69
-7.28
-8.67
-7.11
-3.77
-0.03
2.04
1.79
-0.55
-3.66
-5.82
-6.48
-5.51
-4.29
-3.63
-4.38
-5.97
-7.17
-7.04
-4.83
-1.54
1.73
3.16
2.33
-0.55
-4.12
-6.71
-7.65
-6.63
-4.83
-2.97
-2.05
-1.79
-1.37
-0.15
2.46
5.47
7.93
8.16
5.85
1.30
-4.01
-8.17
-10.16
-9.34
-6.66
-2.91
0.56
3.44
5.92
8.22
10.77
12.80
13.76
12.40
8.73
3.12
-3.00
-7.80
-10.26
-9.61
-6.65
-2.13
2.52
6.77
10.48
13.64
16.55
18.47
18.93
16.81
12.19
5.45
-1.88
-7.81
-11.09
-10.77
-7.68
-2.75
2.26
6.55
9.86
12.34
14.57
16.08
16.61
15.05
11.41
5.92
0.01
-4.50
-6.49
-5.19
-1.53
3.55
8.45
12.58
15.85
18.56
21.19
23.13
23.79
21.65
16.35
8.00
-1.60
-9.79
-14.40
-14.06
-10.00
-4.46
-0.89
-1.20
-5.70
-12.65
-19.21
-23.61
-25.08
-25.17
-25.38
-27.28
-30.50
-33.42
-34.33
-31.85
-26.81
-20.69
-15.94
-13.51
-13.23
-13.57
-12.56
-9.44
-4.17
1.63
6.73
9.79
10.91
10.86
10.25
9.73
8.71
7.08
4.50
2.02
0.67
1.13
3.06
4.35
3.15
-1.88
-9.19
-15.79
-17.71
-12.83
-2.56
9.11
16.42
15.87
6.92
-6.50
-18.83
-24.85
-22.14
-12.31
0.93
12.60
19.73
21.16
18.65
15.15
13.22
14.39
17.65
21.16
22.11
19.42
13.53
6.87
2.69
3.03
8.51
16.98
25.63
31.46
33.69
33.57
33.53
36.08
41.44
48.27
53.47
54.82
51.62
45.51
39.61
36.46
37.56
42.13
48.76
55.61
61.57
65.19
63.74
53.34
29.61
-8.71
-58.67
-111.60
-156.66
-183.83
-187.67
-169.39
-134.89
-93.28
-52.77
-19.96
2.00
12.39
12.29
4.40
-8.63
-23.59
-38.16
-50.07
-58.03
-61.20
-59.71
-55.09
-49.23
-44.54
-41.87
-40.94
-39.59
-35.64
-28.14
-17.91
-8.11
-1.75
-1.17
-5.64
-12.81
-19.11
-21.92
-21.14
-18.11
-15.63
-14.92
-16.00
-16.60
-14.46
-8.70
-0.36
7.17
10.93
8.87
2.01
-7.38
-15.81
-20.53
-20.52
-15.51
-6.69
5.22
18.96
34.08
49.62
64.26
76.40
83.74
85.02
79.43
68.36
53.79
38.96
26.83
19.10
16.66
18.42
23.24
29.20
35.57
41.61
46.89
50.99
52.56
50.78
44.64
34.83
22.45
9.93
-0.26
-6.62
-8.24
-6.10
-1.19
4.66
10.78
16.46
21.32
24.95
26.04
23.86
17.51
7.79
-4.14
-15.90
-25.22
-30.74
-31.64
-28.71
-22.67
-15.06
-6.48
2.13
9.95
16.06
18.78
17.25
10.65
0.06
-12.99
-25.74
-35.65
-41.19
-41.59
-37.93
-31.31
-23.70
-16.07
-9.52
-4.65
-1.67
-1.05
-2.34
-5.42
-9.24
-13.41
-16.98
-19.23
-19.69
-17.62
-13.32
-7.02
-0.17
6.21
10.63
12.50
12.15
10.33
8.82
8.45
10.12
13.32
17.83
23.12
28.63
33.94
37.61
38.56
35.33
28.08
17.62
6.05
-4.15
-11.23
-13.65
-11.49
-4.80
5.23
17.63
30.63
41.90
49.26
50.46
45.20
34.27
20.62
7.21
-3.17
-9.27
-11.94
-12.74
-14.01
-16.47
-20.03
-22.92
-23.77
-22.44
-20.21
-19.92
-23.43
-31.59
-42.50
-53.35
-60.81
-62.96
-60.18
-54.17
-48.17
-44.36
-44.26
-47.03
-50.78
-52.95
-51.20
-45.11
-35.27
-24.18
-14.06
-7.14
-3.86
-3.24
-3.51
-2.07
2.41
10.79
21.99
34.74
47.12
57.53
64.98
68.15
66.58
59.48
47.37
31.15
13.16
-3.56
-16.19
-22.07
-20.59
-12.16
0.71
15.49
29.21
39.62
45.66
46.58
42.90
34.92
23.89
10.56
-3.53
-16.61
-26.99
-32.57
-32.58
-26.62
-16.16
-2.80
10.95
22.78
31.11
34.50
32.95
26.54
16.72
4.71
-7.52
-17.99
-25.19
-27.56
-24.95
-17.46
-6.71
5.88
18.18
28.35
35.19
37.46
35.22
28.51
18.69
6.93
-4.83
-14.68
-21.24
-23.16
-20.59
-13.81
-4.45
6.32
16.75
25.43
31.34
33.23
30.95
24.32
14.63
3.12
-8.05
-16.87
-22.16
-23.09
-20.43
-14.92
-8.15
-0.80
6.27
12.43
17.07
18.80
16.91
10.61
0.81
-11.26
-23.22
-32.79
-38.58
-39.65
-36.68
-30.28
-22.05
-12.83
-3.92
3.58
8.79
10.48
8.52
2.79
-5.35
-14.72
-23.35
-29.69
-32.91
-32.52
-29.37
-24.16
-18.38
-12.72
-8.20
-5.36
-4.35
-5.40
-7.73
-10.88
-13.57
-15.38
-15.57
-14.10
-11.38
-7.82
-4.70
-2.64
-2.67
-4.67
-8.67
-13.97
-19.45
-24.11
-26.25
-25.16
-20.07
-11.87
-1.54
9.10
18.25
24.79
27.46
26.22
20.85
12.29
1.22
-10.80
-21.77
-29.77
-32.37
-28.64
-18.26
-3.06
14.71
31.92
45.75
54.39
56.34
51.73
40.90
25.71
7.94
-9.74
-24.61
-34.52
-37.39
-32.90
-21.34
-4.86
14.26
32.86
48.10
57.94
60.73
56.53
45.84
30.75
13.26
-3.88
-18.15
-27.76
-31.18
-28.54
-20.29
-8.33
5.78
19.88
31.92
40.33
43.32
40.37
31.29
17.62
1.11
-15.50
-29.51
-38.97
-42.21
-39.21
-30.30
-17.30
-1.78
14.09
28.36
39.64
46.40
48.27
44.89
37.27
26.40
14.36
3.53
-3.97
-5.97
-1.98
7.76
21.07
35.75
48.98
58.76
64.23
64.96
61.77
55.07
46.04
35.28
24.25
14.65
7.93
5.39
6.61
10.73
15.65
20.21
23.44
25.25
25.83
24.64
21.51
15.72
8.21
0.41
-4.99
-6.09
-3.34
0.63
1.04
-5.44
-19.81
-38.61
-56.52
-68.53
-72.62
-71.24
-68.74
-69.91
-76.27
-86.71
-97.31
-104.01
-104.32
-97.41
-84.87
-68.55
-51.14
-34.27
-19.58
-7.89
0.51
5.11
6.24
3.75
-1.44
-8.69
-16.30
-22.37
-25.23
-23.39
-17.03
-6.88
4.71
15.80
24.36
29.49
31.58
31.32
30.15
28.41
26.36
23.02
18.04
11.65
5.09
0.85
0.71
5.96
15.47
27.21
37.83
44.65
46.28
42.52
35.05
25.50
16.14
8.16
2.72
0.11
-0.46
-0.19
-1.44
-5.53
-13.21
-23.03
-32.92
-40.83
-45.90
-49.35
-52.85
-58.73
-67.48
-78.67
-89.73
-97.42
-98.69
-91.34
-75.74
-54.05
-30.90
-10.89
2.01
6.88
5.75
2.19
0.16
1.10
4.55
7.97
9.46
8.38
5.49
2.14
-1.38
-5.50
-11.20
-18.00
-23.63
-24.26
-16.56
-0.03
22.42
44.88
61.62
69.13
68.10
62.43
57.35
57.09
63.16
74.92
90.05
106.64
123.19
139.23
154.51
168.37
180.11
188.62
193.43
194.27
191.62
186.17
178.47
168.71
156.67
142.23
124.95
104.71
81.56
56.05
28.94
1.01
-27.12
-55.00
-82.08
-107.88
-131.62
-152.63
-169.90
-182.35
-188.98
-189.00
-181.92
-167.39
-145.90
-116.86
-81.24
-40.94
1.48
43.13
81.54
114.02
139.58
157.97
169.38
173.78
171.24
162.01
146.54
126.65
105.30
85.85
70.81
61.53
57.69
57.75
59.59
60.97
60.76
59.73
59.51
61.21
65.14
70.10
73.55
71.93
60.64
35.61
-4.09
-55.92
-113.98
-169.09
-211.31
-232.47
-225.22
-188.91
-135.75
-79.18
-29.41
4.74
18.57
11.95
-10.58
-41.38
-72.56
-97.81
-112.65
-116.44
-111.99
-103.68
-97.21
-98.83
-114.70
-149.95
-206.39
-279.97
-361.84
-440.87
-502.21
-536.15
-540.58
-520.59
-485.79
-445.74
-406.06
-368.36
-331.87
-295.39
-259.20
-224.76
-193.50
-165.79
-140.65
-116.32
-91.54
-66.43
-43.67
-25.47
-13.09
-6.68
-5.40
-8.05
-13.69
-22.13
-33.90
-49.34
-68.10
-88.63
-108.29
-123.92
-132.84
-133.77
-126.76
-113.10
-93.89
-69.79
-40.65
-5.56
37.18
89.80
154.23
231.17
318.55
411.10
500.84
579.16
638.88
677.49
697.75
705.89
708.43
709.08
707.98
702.63
689.90
668.08
637.50
599.85
556.75
508.99
456.59
400.05
340.84
281.05
223.18
169.05
119.28
73.08
30.01
-12.28
-55.77
-101.27
-148.48
-196.09
-242.45
-285.87
-324.83
-358.13
-384.80
-403.42
-412.39
-410.38
-396.65
-371.19
-334.65
-286.40
-227.37
-159.91
-87.03
-12.52
59.16
123.42
176.18
214.65
237.81
247.08
244.20
231.02
208.82
177.95
138.12
88.75
29.37
-39.94
-116.84
-197.07
-274.15
-339.74
-385.38
-405.00
-397.42
-367.36
-324.09
-278.32
-238.67
-209.46
-190.82
-180.68
-177.12
-179.59
-188.50
-203.82
-223.90
-245.40
-264.54
-278.53
-286.52
-289.47
-289.16
-286.66
-281.24
-271.06
-251.70
-218.06
-165.81
-92.46
1.46
111.52
229.05
341.49
435.05
499.11
529.60
530.53
512.08
486.24
461.73
441.60
423.58
403.53
379.05
350.76
320.91
291.36
261.97
231.70
201.34
172.33
146.56
123.99
100.98
71.28
29.89
-23.06
-80.97
-133.22
-170.41
-189.28
-194.06
-193.51
-195.72
-204.32
-218.18
-233.92
-249.29
-264.69
-281.78
-301.38
-321.87
-339.57
-350.24
-351.50
-343.85
-330.00
-314.42
-299.27
-284.22
-266.30
-241.61
-207.29
-162.96
-110.87
-54.81
1.45
56.03
109.05
162.28
217.72
276.57
337.93
399.73
458.46
509.01
544.89
558.98
546.30
506.25
443.85
368.92
292.55
223.00
162.80
110.06
60.03
10.19
-37.28
-76.64
-101.92
-111.01
-107.34
-98.68
-93.67
-98.38
-113.93
-136.81
-161.52
-182.83
-197.59
-204.53
-202.61
-189.90
-164.07
-124.17
-72.99
-17.92
30.81
63.60
75.80
69.63
53.60
38.62
33.11
39.78
55.44
74.19
90.66
102.34
109.54
113.49
114.63
112.16
104.03
88.29
63.94
31.32
-7.96
-50.82
-92.82
-128.38
-152.29
-160.99
-154.94
-138.82
-119.86
-105.13
-99.06
-102.58
-113.46
-128.19
-143.38
-156.57
-166.18
-170.83
-169.46
-161.55
-147.31
-127.45
-103.02
-75.29
-44.98
-12.12
24.36
65.95
113.55
165.81
218.24
263.43
292.94
300.60
284.99
250.02
204.34
158.42
119.56
90.64
70.63
56.22
44.32
32.56
19.57
3.78
-16.91
-44.45
-79.20
-118.14
-155.10
-181.68
-190.73
-179.32
-150.52
-112.59
-75.86
-48.88
-35.24
-34.00
-40.73
-50.75
-60.79
-69.85
-78.43
-86.38
-92.38
-93.46
-86.13
-66.80
-33.23
14.20
71.65
131.32
183.53
218.93
231.95
222.01
193.27
152.59
107.35
64.29
28.85
5.33
-4.00
0.34
14.03
29.53
38.37
33.88
13.76
-20.03
-62.17
-106.85
-148.84
-184.57
-212.08
-230.65
-240.57
-242.52
-237.96
-228.25
-214.76
-198.28
-179.02
-157.21
-132.94
-106.91
-80.18
-54.39
-31.01
-11.17
4.74
17.05
26.36
33.57
39.19
43.69
46.93
49.04
50.27
51.39
54.07
60.41
73.33
94.58
124.44
160.08
196.19
226.43
245.34
250.62
242.80
225.33
202.00
176.42
151.21
128.35
109.57
95.52
85.80
77.54
67.17
51.12
28.06
-0.59
-31.59
-60.99
-86.50
-106.51
-121.01
-129.41
-131.21
-126.15
-114.89
-99.79
-83.23
-67.79
-53.72
-40.35
-26.14
-10.23
6.81
23.77
38.69
50.99
60.22
67.04
71.71
74.42
75.35
74.55
72.92
70.52
67.80
64.30
60.02
55.30
51.06
48.50
47.33
46.46
43.06
35.03
22.18
7.46
-3.66
-5.79
4.01
23.01
44.62
59.40
59.53
41.20
5.64
-41.21
-91.65
-137.08
-171.28
-189.91
-192.16
-179.80
-156.52
-126.84
-93.99
-60.76
-28.19
1.93
27.50
45.79
54.77
54.64
47.27
36.42
24.77
13.98
3.81
-6.29
-16.21
-24.63
-28.82
-27.13
-18.72
-5.62
8.94
21.09
27.88
28.62
24.05
16.88
9.02
2.28
-3.09
-7.31
-10.76
-13.80
-16.06
-18.14
-20.10
-23.11
-27.54
-33.33
-39.37
-43.65
-44.89
-42.17
-37.01
-31.49
-28.40
-29.19
-33.56
-39.62
-44.35
-46.18
-44.37
-40.66
-36.97
-34.96
-34.76
-34.78
-33.29
-28.35
-20.14
-9.29
2.51
14.20
25.40
36.16
46.73
55.80
62.01
62.94
57.70
47.01
33.70
22.01
15.34
15.83
22.06
31.13
38.76
41.97
39.91
34.14
28.35
25.67
28.68
36.73
47.61
57.58
63.51
64.13
59.92
53.57
47.11
42.35
38.98
36.03
32.38
27.74
23.16
19.25
16.83
14.64
11.42
5.84
-1.87
-9.68
-14.93
-14.76
-8.85
1.75
13.79
24.33
31.49
35.31
37.82
40.82
46.13
53.21
60.92
67.48
72.07
75.29
78.23
82.42
87.52
92.54
95.24
94.07
88.61
79.85
69.76
59.30
48.97
37.30
23.07
5.29
-15.40
-37.14
-58.00
-76.31
-92.73
-108.24
-124.69
-142.22
-159.45
-173.62
-181.64
-182.44
-176.52
-167.09
-157.41
-150.21
-146.13
-143.81
-141.24
-136.33
-128.96
-119.95
-111.49
-105.33
-102.28
-101.89
-102.21
-101.39
-97.31
-89.53
-78.09
-64.25
-49.26
-34.02
-19.05
-3.80
11.63
27.51
42.66
55.83
65.52
71.04
73.20
73.57
74.88
78.53
85.17
93.57
101.91
108.67
113.17
116.15
117.94
118.89
117.50
112.04
100.94
83.89
62.36
38.32
14.39
-8.12
-27.76
-43.67
-54.41
-58.44
-54.80
-43.35
-26.20
-6.05
13.00
27.97
36.87
39.61
37.79
33.40
28.87
24.75
21.00
16.10
8.95
-0.63
-11.52
-21.27
-28.23
-31.01
-30.54
-28.14
-25.41
-22.87
-19.59
-14.47
-6.42
3.08
11.65
15.56
12.62
2.99
-10.12
-21.25
-25.90
-21.04
-8.09
9.34
26.10
38.28
44.47
45.45
44.02
41.90
40.53
39.28
37.29
33.88
29.42
25.58
23.52
24.46
27.21
30.09
30.75
27.89
21.70
13.54
5.85
-0.32
-4.13
-6.61
-8.41
-9.87
-10.33
-8.31
-3.69
3.25
9.89
14.02
13.91
10.00
4.29
-1.13
-4.84
-8.04
-12.24
-19.17
-27.94
-35.76
-38.52
-32.76
-18.67
0.66
18.12
26.74
21.57
2.63
-25.20
-54.31
-77.20
-90.82
-95.81
-96.72
-97.67
-100.62
-104.54
-106.29
-103.50
-94.28
-79.19
-58.79
-34.73
-9.01
15.51
35.88
50.98
61.43
70.49
80.31
91.31
100.56
104.17
100.35
90.37
79.42
71.86
70.02
71.74
72.88
69.92
62.26
52.98
45.67
43.41
45.55
49.54
51.95
50.84
46.62
40.73
35.28
30.19
24.88
17.56
7.54
-4.55
-16.81
-26.64
-33.05
-35.68
-36.37
-36.58
-37.45
-38.61
-38.39
-35.30
-28.06
-17.83
-6.28
3.70
10.39
13.31
13.40
12.37
10.61
8.02
2.68
-6.41
-19.25
-33.80
-46.82
-55.72
-59.02
-58.27
-55.50
-53.31
-52.37
-51.75
-49.29
-42.65
-31.36
-15.98
0.61
15.82
27.30
34.42
38.15
40.09
42.31
45.10
48.32
50.36
50.32
48.11
44.96
43.02
43.49
46.91
51.45
55.19
56.22
54.08
49.81
44.53
39.18
32.74
24.11
12.11
-2.28
-16.56
-27.75
-33.95
-36.72
-39.87
-49.60
-70.55
-104.63
-149.14
-197.31
-240.15
-268.04
-274.32
-255.74
-214.70
-158.05
-95.92
-39.44
2.32
23.59
24.02
7.05
-19.80
-47.85
-68.59
-75.31
-64.58
-35.92
7.22
59.27
112.27
158.52
191.52
207.63
207.02
192.49
169.27
141.85
114.09
87.76
63.78
42.90
26.02
14.82
9.80
11.03
16.56
23.92
30.45
34.18
34.26
30.16
22.31
10.37
-4.96
-22.84
-41.14
-57.03
-67.93
-72.07
-70.47
-65.29
-60.48
-58.83
-61.60
-67.78
-74.58
-79.40
-79.82
-75.85
-68.19
-58.79
-49.11
-39.92
-31.18
-21.95
-12.14
-1.57
8.34
16.47
21.71
24.21
25.45
26.97
30.38
34.91
39.14
40.42
37.34
30.21
21.23
13.93
10.52
12.25
17.36
23.46
27.84
29.24
28.24
26.25
25.35
25.75
27.10
27.47
25.43
20.46
13.44
6.55
1.22
-1.30
-2.09
-2.45
-4.01
-7.21
-11.12
-14.39
-15.27
-13.91
-10.93
-8.36
-7.54
-8.88
-11.49
-13.38
-13.45
-10.90
-7.21
-3.93
-2.79
-4.07
-6.52
-8.38
-7.63
-4.53
-0.13
2.79
2.34
-2.13
-9.28
-16.23
-20.78
-21.28
-18.98
-15.82
-14.42
-16.06
-20.18
-25.04
-27.98
-28.11
-25.29
-21.42
-18.40
-17.60
-19.27
-22.37
-26.28
-30.14
-34.54
-39.44
-44.39
-47.45
-45.62
-36.28
-17.67
8.66
39.57
69.59
93.82
108.56
112.34
106.09
91.68
72.41
50.80
29.85
11.63
-2.00
-9.89
-12.02
-8.81
-2.31
5.63
12.40
16.25
16.25
12.66
7.10
1.13
-3.36
-6.38
-8.41
-10.89
-14.60
-19.11
-23.11
-24.50
-22.88
-18.58
-14.06
-11.45
-12.00
-14.92
-17.48
-17.18
-12.16
-3.86
4.86
10.00
9.11
2.18
-8.63
-19.71
-28.95
-35.32
-40.17
-45.05
-50.95
-57.68
-63.88
-68.73
-71.68
-73.79
-75.99
-78.89
-81.73
-82.40
-78.16
-66.08
-45.03
-14.91
21.85
61.93
101.55
137.68
169.04
195.29
217.31
235.05
248.05
254.73
253.34
242.45
221.38
190.84
152.29
108.79
64.12
22.73
-11.20
-34.75
-46.67
-47.75
-39.66
-24.50
-3.61
22.03
51.36
82.47
112.42
137.78
154.42
159.14
149.61
125.10
87.01
38.60
-14.54
-65.87
-108.48
-137.23
-149.60
-146.39
-131.07
-108.09
-81.29
-52.25
-20.81
13.52
49.19
81.40
102.89
106.35
88.02
49.70
-0.88
-53.03
-96.61
-125.32
-137.76
-135.86
-123.21
-102.51
-75.66
-44.43
-11.12
20.96
48.24
67.52
77.58
78.84
73.65
64.79
54.97
45.78
37.56
29.78
21.07
10.37
-3.47
-21.31
-44.37
-74.08
-111.22
-155.18
-202.57
-247.70
-283.33
-303.56
-305.75
-291.66
-267.06
-238.39
-212.19
-192.44
-180.78
-176.47
-177.88
-183.21
-190.66
-198.92
-206.99
-214.10
-219.07
-221.54
-221.33
-219.07
-215.54
-211.11
-205.91
-198.60
-187.74
-171.23
-147.52
-115.73
-76.05
-30.09
19.85
70.54
119.31
163.71
202.66
235.72
263.27
286.08
304.80
320.51
333.71
344.74
352.68
355.82
352.27
340.83
322.38
299.04
273.79
247.91
220.66
189.42
151.68
107.53
60.23
15.90
-19.60
-42.36
-52.70
-53.94
-50.78
-47.99
-49.22
-56.66
-69.63
-85.38
-97.99
-100.98
-89.07
-61.11
-21.82
20.31
55.41
76.99
83.46
78.55
68.32
58.50
52.62
51.28
54.35
61.76
74.78
94.56
120.97
151.04
178.82
197.51
200.99
186.94
156.82
115.66
69.42
23.09
-20.70
-61.85
-100.96
-138.92
-175.36
-209.81
-241.83
-270.81
-295.90
-314.39
-322.32
-314.77
-288.78
-244.10
-184.80
-117.72
-50.10
12.45
67.77
115.54
156.32
188.68
209.58
216.08
207.80
189.33
168.65
154.57
151.74
158.65
167.75
169.23
155.71
125.12
81.29
30.87
-19.52
-65.90
-106.91
-142.19
-170.85
-190.61
-198.94
-193.83
-175.64
-146.67
-110.95
-72.96
-36.34
-3.40
25.25
49.65
70.42
87.56
100.55
108.58
110.94
107.78
99.98
89.25
77.31
65.59
54.82
45.06
35.93
26.97
18.03
9.24
1.08
-6.04
-11.79
-16.18
-19.45
-21.96
-24.08
-25.97
-27.68
-29.12
-30.21
-30.86
-31.11
-31.01
-30.67
-30.17
-29.58
-28.93
-28.25
-27.54
-26.79
-26.01
-25.20
-24.35
-23.47
-22.57
-21.65
-20.72
-19.78
-18.83
-17.86
-16.89
-15.91
-14.95
-14.00
-13.02
-12.05
-11.12
-10.24
-9.41
-8.64
-7.93
-7.27
-6.66
-6.12
-5.62
-5.18
-4.78
-4.42
-4.09
-3.79
-3.52
-3.27
-3.04
-2.84
-2.66
-2.50
-2.35
-2.21
-2.08
-1.97
-1.85
-1.75
-1.66
-1.58
-1.51
-1.44
-1.37
-1.31
-1.25
-1.20
-1.14
-1.10
-1.05
-1.02
-0.98
-0.94
-0.91
-0.88
-0.85
-0.82
-0.79
-0.77
-0.74
-0.72
-0.70
-0.68
-0.66
-0.64
-0.62
-0.60
-0.59
-0.57
-0.55
-0.53
-0.52
-0.50
-0.50
-0.48
-0.46
-0.45
-0.45
-0.43
-0.42
-0.41
-0.40
-0.39
-0.38
-0.37
-0.36
-0.35
-0.34
-0.33
-0.33
-0.32
-0.31
-0.30
-0.30
-0.29
-0.28
-0.28
-0.27
-0.26
-0.26
-0.25
-0.25
-0.25
-0.25
-0.26
-0.27
-0.27
-0.28
-0.28
-0.27
-0.26
-0.22
-0.18
-0.13
-0.07
0.01
0.10
0.19
0.27
0.37
0.46
0.54
0.62
0.71
0.79
0.86
0.95
1.03
1.13
1.25
1.39
1.56
1.71
1.81
1.87
1.86
1.88
1.96
2.19
2.57
3.06
3.58
4.06
4.46
4.82
5.22
5.74
6.45
7.36
8.41
9.51
10.56
11.49
12.33
13.16
14.16
15.45
17.07
18.93
20.77
22.34
23.52
24.48
25.65
27.67
30.92
35.47
40.87
46.19
50.36
52.51
52.20
49.51
44.93
38.90
31.58
22.70
11.73
-1.60
-16.85
-32.98
-48.36
-61.13
-70.15
-75.06
-76.51
-75.78
-74.11
-72.73
-72.30
-73.69
-77.49
-83.02
-87.67
-86.65
-74.98
-50.17
-14.94
22.47
51.54
64.57
60.76
46.47
31.13
21.69
19.46
20.97
21.90
20.54
18.58
18.10
18.67
16.52
7.23
-10.27
-31.87
-49.70
-56.79
-51.05
-36.03
-18.09
-2.23
10.37
21.56
33.73
47.41
61.13
72.28
78.48
78.22
70.65
55.54
33.48
6.41
-22.21
-48.33
-69.04
-83.73
-93.94
-101.53
-106.68
-106.66
-97.55
-76.80
-45.83
-10.40
21.89
44.63
55.67
57.23
53.90
50.22
48.58
49.20
51.05
52.63
52.11
47.20
35.18
14.02
-16.05
-51.62
-86.60
-114.61
-130.38
-132.24
-121.78
-102.81
-79.52
-55.08
-31.75
-11.19
4.94
15.57
20.88
23.58
28.51
40.62
62.09
89.79
115.69
129.97
126.06
103.84
70.00
34.59
6.42
-10.83
-19.23
-23.61
-27.41
-30.42
-29.38
-21.20
-6.16
11.71
25.00
27.53
18.20
1.69
-14.03
-21.12
-15.99
-1.22
15.13
23.96
18.03
-4.80
-40.47
-80.06
-112.56
-128.33
-122.26
-95.32
-53.94
-8.33
30.97
55.33
60.10
45.62
16.91
-17.66
-48.60
-66.75
-67.96
-53.07
-26.54
5.56
37.60
65.10
84.47
92.94
89.97
76.26
56.30
37.25
26.15
26.68
37.28
51.50
60.07
56.39
38.51
10.18
-21.71
-50.57
-72.72
-87.97
-98.25
-106.12
-112.98
-119.17
-124.14
-127.33
-128.49
-127.62
-125.44
-121.05
-113.60
-102.03
-85.63
-64.13
-37.96
-8.36
22.87
52.69
79.15
100.78
116.99
127.92
134.43
137.72
138.89
138.66
137.22
134.58
130.44
124.88
118.51
112.33
107.38
104.19
102.48
101.73
101.77
102.67
104.47
106.11
105.18
98.28
82.83
58.74
29.13
-0.86
-26.57
-45.74
-58.67
-66.79
-70.44
-67.88
-56.36
-34.65
-5.13
25.63
48.94
57.50
48.50
24.61
-7.32
-39.09
-64.25
-79.70
-85.64
-84.26
-78.10
-68.36
-56.18
-41.86
-26.19
-10.58
2.71
11.21
13.19
8.12
-3.40
-20.39
-41.67
-65.74
-91.00
-114.23
-130.81
-136.08
-127.40
-106.05
-77.37
-48.71
-26.58
-14.28
-11.10
-13.68
-18.36
-22.91
-26.78
-30.43
-33.83
-36.05
-35.75
-32.22
-25.40
-16.40
-6.70
2.31
10.13
17.07
23.81
30.96
38.53
45.93
52.04
55.78
56.39
53.69
48.18
40.68
32.11
23.26
14.65
6.48
-1.09
-8.07
-14.55
-20.65
-26.38
-31.56
-35.58
-37.66
-37.08
-33.28
-26.44
-17.67
-8.70
-1.20
3.85
6.66
8.43
10.70
15.09
21.92
29.88
36.71
40.22
39.41
35.37
30.69
28.63
32.78
45.54
67.20
95.67
126.81
155.28
176.43
187.72
184.27
166.45
138.43
105.78
72.70
40.58
7.58
-29.16
-71.32
-117.27
-160.98
-193.78
-208.59
-203.22
-180.98
-149.20
-115.20
-83.80
-55.96
-29.20
1.22
38.66
81.31
126.65
168.19
199.68
216.65
217.69
198.05
160.48
115.73
76.80
51.47
39.29
35.68
36.59
40.74
46.81
53.24
56.80
53.31
39.99
17.16
-11.30
-39.90
-63.90
-83.13
-99.98
-118.66
-143.56
-177.88
-223.07
-278.00
-338.58
-386.25
-403.32
-379.76
-319.57
-238.28
-154.79
-84.29
-34.26
-4.37
10.86
16.64
15.99
9.61
-2.21
-17.73
-33.47
-45.13
-49.28
-45.93
-37.55
-28.38
-22.54
-21.65
-24.34
-27.19
-26.43
-19.10
-3.90
17.88
42.08
62.94
75.27
76.07
65.29
45.79
22.22
-3.49
-28.62
-52.07
-74.63
-98.48
-126.11
-158.90
-196.03
-234.37
-269.29
-295.80
-310.95
-314.31
-307.48
-293.01
-273.24
-249.44
-222.34
-193.12
-163.43
-135.59
-111.60
-92.22
-76.77
-63.81
-51.87
-40.14
-28.54
-16.92
-5.06
7.84
22.95
41.52
64.21
90.80
120.09
150.31
179.85
207.53
233.02
256.72
279.67
303.15
327.75
352.63
374.89
390.00
392.81
379.47
349.16
305.01
253.55
202.90
160.43
130.71
114.95
111.59
117.61
129.67
144.68
159.59
171.20
176.32
172.51
159.01
137.17
110.30
82.44
57.07
36.09
19.65
6.85
-3.46
-11.86
-18.05
-21.04
-19.77
-13.91
-4.21
7.39
18.26
26.08
29.77
29.94
28.42
27.25
27.46
28.50
28.77
26.73
21.98
15.60
9.42
4.82
1.95
-0.30
-3.33
-7.83
-13.08
-17.62
-20.24
-20.78
-20.16
-19.59
-19.88
-20.77
-21.44
-20.87
-18.59
-14.82
-10.26
-5.68
-1.64
1.36
3.01
3.07
1.87
-0.08
-2.13
-3.55
-3.62
-1.77
1.77
6.22
10.13
13.06
15.19
17.64
22.24
30.92
45.00
63.89
86.27
109.27
131.20
149.67
161.14
161.71
148.14
119.14
74.22
16.36
-50.12
-116.35
-173.41
-214.26
-235.31
-236.52
-219.46
-187.30
-139.13
-73.34
14.83
126.03
254.60
389.24
517.53
631.01
724.78
802.12
835.51
804.68
702.77
542.65
349.98
150.10
-23.38
-171.42
-297.67
-403.03
-481.11
-525.81
-534.23
-508.75
-457.54
-391.73
-325.03
-265.79
-219.80
-187.02
-165.54
-152.68
-146.17
-144.30
-145.30
-149.17
-153.51
-156.72
-156.20
-150.61
-140.13
-126.63
-112.87
-101.07
-93.22
-88.16
-83.98
-78.14
-69.33
-57.81
-45.46
-34.72
-27.37
-24.24
-23.56
-22.36
-17.07
-5.13
14.04
38.44
63.86
85.15
97.71
99.47
91.29
76.77
61.00
48.93
43.74
45.83
53.17
62.58
71.39
78.49
84.60
91.32
99.86
110.15
120.49
128.64
132.97
133.25
130.37
125.88
121.11
116.67
112.53
107.60
100.65
90.81
77.74
61.50
42.56
21.71
0.17
-20.32
-39.51
-57.65
-75.54
-93.90
-112.79
-131.55
-148.89
-163.39
-174.02
-183.22
-194.42
-210.49
-231.83
-255.78
-277.81
-293.66
-300.74
-298.83
-293.16
-290.72
-297.92
-318.41
-352.01
-395.59
-444.69
-494.42
-521.59
-507.95
-445.15
-340.19
-212.05
-80.78
40.23
145.38
234.22
308.44
367.17
409.48
435.76
448.17
450.97
449.53
447.01
444.33
441.00
433.66
419.10
395.82
364.11
326.67
287.08
248.31
212.32
179.87
149.14
116.88
84.11
51.00
18.15
-13.73
-44.27
-73.17
-100.17
-125.70
-150.36
-174.57
-199.11
-224.44
-251.00
-279.65
-311.18
-345.60
-381.52
-415.47
-441.83
-454.80
-449.90
-426.13
-386.90
-338.84
-289.39
-244.14
-205.42
-172.60
-144.21
-119.22
-97.58
-79.71
-65.24
-52.71
-40.24
-26.89
-13.50
-2.44
4.07
6.04
6.02
7.92
14.49
25.32
36.84
44.40
44.77
37.90
27.00
16.24
8.89
6.16
7.76
13.26
23.05
38.11
58.45
81.99
104.28
120.12
125.99
121.77
110.74
97.74
86.77
79.42
75.34
73.38
73.24
75.98
83.02
94.85
109.93
124.83
135.50
139.35
136.00
127.40
116.38
105.00
93.91
82.45
69.73
55.44
40.38
26.03
13.73
3.89
-4.51
-13.05
-22.98
-34.31
-45.50
-53.96
-57.21
-53.60
-42.87
-26.45
-6.88
12.70
29.52
42.10
50.56
56.09
60.05
63.09
64.52
62.93
57.18
47.46
35.70
24.80
17.11
13.30
12.39
12.08
10.12
5.24
-2.45
-11.87
-21.59
-30.27
-36.92
-40.73
-41.08
-37.43
-29.57
-17.93
-3.68
11.40
25.41
36.86
45.08
50.25
53.16
54.72
55.56
56.12
56.87
58.69
62.86
70.48
81.78
95.72
110.28
123.22
133.11
139.70
143.63
145.79
146.55
145.49
141.51
133.56
121.15
104.78
85.92
66.77
49.59
36.26
27.75
24.00
24.21
27.48
33.28
41.44
51.69
62.79
72.45
77.89
77.05
69.71
57.78
44.31
32.10
22.43
14.84
7.73
-0.49
-10.42
-21.45
-31.90
-39.73
-43.06
-40.94
-33.69
-23.56
-14.74
-12.63
-22.07
-45.45
-81.63
-126.01
-172.21
-214.01
-247.51
-271.95
-288.99
-301.31
-310.85
-318.20
-322.77
-323.66
-319.61
-310.27
-296.39
-279.49
-261.33
-243.18
-225.72
-208.98
-192.40
-173.34
-149.32
-119.05
-83.17
-44.03
-4.95
30.72
60.44
82.80
100.61
117.87
138.33
164.15
195.62
231.44
269.33
306.82
341.87
376.78
414.30
455.95
500.39
544.18
583.29
614.83
638.00
632.04
584.93
495.89
377.32
248.15
124.82
16.02
-76.29
-153.63
-218.14
-267.85
-300.66
-315.30
-315.39
-306.40
-293.89
-281.94
-272.61
-265.94
-258.00
-244.46
-222.11
-189.66
-147.05
-96.54
-41.98
10.46
52.50
77.21
80.24
61.87
27.37
-13.97
-52.08
-79.16
-91.76
-90.68
-78.49
-58.28
-32.86
-4.96
22.55
46.63
64.84
75.90
80.07
79.07
75.05
69.41
62.11
51.99
37.89
19.75
-0.63
-19.92
-34.36
-41.17
-39.61
-31.14
-18.63
-5.14
7.07
16.90
24.05
28.64
31.05
31.94
32.14
32.24
31.89
29.59
23.10
10.35
-9.52
-35.89
-67.01
-100.51
-133.71
-163.65
-187.13
-201.08
-203.31
-193.28
-172.41
-143.60
-110.36
-75.73
-42.00
-10.75
16.85
40.04
58.66
73.33
85.33
96.19
107.08
118.43
129.86
140.54
149.61
156.60
161.60
165.16
167.99
170.44
172.38
173.23
172.31
169.30
164.47
158.68
153.11
148.84
146.47
145.82
145.74
144.41
139.48
129.11
112.77
91.60
68.08
45.13
24.97
8.05
-7.15
-23.71
-44.22
-68.75
-93.55
-111.47
-114.19
-95.64
-55.01
1.91
63.51
116.46
150.03
159.33
146.21
117.58
82.52
49.51
24.62
9.83
5.28
10.39
24.39
45.91
72.36
99.60
122.56
136.20
133.98
112.16
70.56
12.21
-57.95
-135.01
-215.27
-296.08
-375.57
-456.46
-539.83
-624.42
-707.00
-784.17
-854.28
-917.24
-972.52
-1017.05
-1050.33
-1068.46
-1066.36
-1040.41
-991.10
-924.06
-847.94
-771.04
-664.63
-516.77
-332.66
-134.85
48.30
196.48
302.56
370.12
408.00
425.88
426.09
410.55
382.14
344.69
304.95
268.93
240.63
221.75
212.25
206.30
198.84
187.08
171.32
154.21
138.69
127.18
119.47
114.95
110.00
101.98
89.98
75.15
60.00
46.80
36.96
30.90
28.50
27.91
27.61
26.89
25.94
25.61
26.42
28.46
31.26
34.33
36.75
38.14
38.67
39.14
40.56
43.55
48.27
54.26
60.99
67.98
75.18
82.93
91.87
102.66
115.54
130.21
145.94
161.86
177.27
191.96
206.19
220.67
236.38
254.41
275.70
300.45
327.51
354.06
375.94
388.75
389.41
377.38
354.88
326.13
295.66
266.85
241.15
218.37
197.58
178.00
159.45
142.09
126.11
111.43
97.81
85.18
73.79
64.21
57.01
52.29
49.39
47.02
43.67
38.16
30.13
19.99
8.79
-2.25
-12.02
-19.82
-25.41
-29.34
-32.94
-38.16
-47.01
-60.59
-78.23
-97.28
-113.75
-123.71
-124.79
-117.13
-103.22
-87.02
-72.59
-62.98
-59.72
-62.83
-71.11
-82.57
-94.93
-105.99
-114.19
-118.76
-119.87
-118.30
-114.96
-110.48
-104.93
-97.91
-88.77
-76.96
-62.40
-45.54
-27.39
-9.37
6.90
19.80
28.01
30.84
28.46
22.00
13.29
4.52
-2.02
-4.11
0.09
11.29
28.36
47.79
64.14
71.74
66.82
49.50
24.12
-2.00
-21.33
-28.89
-23.96
-9.84
7.94
23.90
34.50
38.67
37.42
32.66
26.30
19.68
13.73
9.34
7.40
8.61
12.86
18.75
23.86
25.57
22.32
14.42
4.00
-6.14
-13.91
-18.76
-21.69
-24.24
-27.29
-30.36
-31.76
-29.65
-23.28
-13.70
-3.74
3.10
4.04
-1.72
-12.76
-25.92
-37.53
-44.66
-45.93
-41.73
-33.84
-24.85
-17.46
-13.97
-15.85
-23.22
-34.56
-46.98
-57.01
-61.80
-60.36
-53.86
-45.10
-37.01
-31.34
-27.86
-24.66
-19.25
-9.65
4.62
22.39
41.25
58.32
71.05
77.88
78.47
73.53
64.45
52.82
40.02
27.18
15.27
5.20
-2.24
-6.69
-8.48
-8.70
-8.82
-9.96
-12.29
-14.90
-16.22
-14.79
-10.04
-2.65
5.75
13.30
18.70
21.75
23.26
24.46
26.26
28.74
31.17
32.59
32.47
30.97
28.81
26.58
24.21
20.93
15.73
8.06
-1.59
-11.88
-21.12
-28.05
-32.25
-34.00
-33.93
-32.67
-30.59
-27.90
-24.81
-21.57
-18.41
-15.52
-12.98
-10.75
-8.84
-7.28
-6.10
-5.15
-4.09
-2.49
-0.01
3.40
7.51
11.74
15.53
18.47
20.47
21.72
22.60
23.46
24.52
25.83
27.24
28.60
29.71
30.51
31.04
31.50
32.19
33.40
35.28
37.56
39.58
40.37
39.00
35.06
28.90
21.73
15.24
11.13
10.41
13.11
18.27
24.37
29.95
34.07
36.56
37.92
38.90
40.00
41.33
42.62
43.52
44.00
44.36
45.06
46.44
48.37
50.27
51.23
50.33
46.64
39.29
27.47
10.64
-11.12
-36.66
-63.82
-89.80
-111.85
-127.99
-137.12
-138.94
-133.48
-120.84
-101.26
-75.54
-45.39
-13.60
16.41
41.28
58.54
67.18
67.75
62.02
52.39
41.13
29.92
19.78
11.18
4.35
-0.55
-3.44
-4.36
-3.61
-1.71
0.69
2.99
4.80
6.10
7.31
9.23
12.73
18.49
26.60
36.47
47.04
57.17
66.16
73.93
80.79
87.10
92.87
97.73
101.06
102.32
101.18
97.23
89.87
78.18
61.50
40.06
15.48
-9.55
-32.05
-50.05
-63.12
-72.24
-79.10
-85.48
-93.15
-104.01
-119.90
-141.66
-168.12
-195.31
-217.46
-229.14
-227.68
-214.29
-193.21
-169.48
-146.98
-127.89
-113.36
-104.50
-102.23
-106.07
-113.18
-118.83
-118.26
-109.03
-92.00
-70.02
-45.54
-19.06
10.23
42.01
72.85
96.47
106.78
101.61
84.19
61.41
39.64
21.49
5.41
-11.64
-31.40
-52.90
-73.83
-93.30
-113.07
-136.45
-165.04
-196.19
-222.97
-236.90
-232.16
-208.27
-170.46
-127.44
-87.67
-56.16
-33.11
-14.83
3.82
26.48
53.64
82.90
110.84
134.97
154.30
168.43
175.96
174.21
160.27
133.31
96.24
55.81
20.15
-4.20
-14.16
-10.49
3.79
24.86
49.18
73.38
94.07
108.07
112.94
108.10
95.26
78.18
61.47
48.97
42.30
40.26
39.50
36.25
28.19
15.50
0.65
-12.98
-22.68
-27.45
-28.19
-26.99
-26.11
-27.03
-30.07
-34.35
-38.36
-40.60
-39.97
-36.09
-29.22
-20.03
-9.28
2.27
13.85
24.55
33.19
38.78
40.82
39.69
36.54
32.77
29.42
26.82
24.58
22.05
18.82
14.87
10.61
6.57
3.17
0.65
-0.84
-1.13
-0.09
2.15
5.07
7.82
9.45
9.35
7.55
4.72
1.86
-0.10
-0.78
-0.47
0.11
0.16
-0.75
-2.46
-4.39
-5.82
-6.25
-5.60
-4.15
-2.33
-0.60
0.63
1.03
0.35
-1.39
-3.72
-5.69
-6.24
-4.54
-0.56
4.90
10.49
14.91
17.56
18.69
19.27
20.31
22.41
25.35
28.35
30.42
30.83
29.41
26.44
22.54
18.48
15.06
13.11
13.32
16.05
21.05
27.58
34.53
40.91
46.17
50.33
53.89
57.36
60.98
64.52
67.40
68.93
68.58
66.14
61.72
55.71
48.62
40.78
32.12
22.28
10.61
-3.38
-19.76
-38.09
-57.58
-77.55
-97.62
-117.71
-137.65
-156.89
-174.22
-188.04
-196.83
-199.68
-196.58
-188.29
-175.67
-159.18
-138.49
-112.90
-82.10
-47.10
-10.57
23.64
51.58
70.47
79.39
79.06
71.22
57.80
40.71
22.47
6.11
-5.42
-10.94
-12.24
-13.95
-21.57
-38.46
-63.87
-92.99
-119.26
-137.47
-145.72
-145.43
-139.26
-128.93
-113.94
-92.13
-61.42
-21.68
24.40
71.75
114.34
146.95
166.64
173.41
169.85
159.87
147.03
133.57
120.22
106.85
93.62
81.56
72.32
67.25
66.43
68.34
70.47
70.45
66.96
60.28
51.82
43.37
36.20
30.73
26.63
23.35
20.45
17.81
15.51
13.66
12.24
11.14
10.20
9.31
8.37
7.14
5.26
2.43
-1.38
-5.83
-10.14
-13.52
-15.50
-16.09
-15.67
-14.66
-13.22
-11.31
-8.87
-5.96
-2.91
-0.21
1.81
3.03
3.67
4.06
4.44
4.95
5.56
6.16
6.74
7.42
8.58
10.77
14.61
20.42
27.97
36.32
43.91
49.17
51.12
49.81
46.39
42.64
40.19
39.97
41.88
45.12
48.74
52.28
55.91
60.16
65.32
70.94
75.80
78.48
78.08
74.49
68.26
59.88
49.36
36.30
20.58
3.07
-14.28
-29.03
-39.23
-44.28
-44.81
-41.88
-36.20
-27.91
-17.14
-5.02
5.87
11.80
9.16
-4.03
-27.08
-56.73
-88.19
-116.67
-138.86
-153.64
-162.10
-166.69
-169.92
-173.07
-175.47
-174.71
-167.65
-151.94
-127.15
-95.25
-60.02
-25.87
3.33
25.06
38.40
43.62
41.64
33.68
21.19
5.87
-10.23
-24.92
-36.23
-42.90
-44.70
-42.51
-37.93
-32.65
-27.91
-24.08
-20.94
-18.04
-15.38
-13.41
-12.86
-14.12
-16.95
-20.53
-23.89
-26.30
-27.43
-27.35
-26.36
-24.88
-23.41
-22.42
-22.24
-22.68
-22.93
-21.63
-17.39
-9.40
2.17
16.03
30.36
43.37
53.99
62.16
69.02
76.49
86.35
99.39
114.54
129.00
138.87
140.40
130.95
109.49
76.59
34.01
-15.40
-67.77
-118.31
-161.92
-194.25
-212.87
-217.80
-211.35
-197.47
-180.90
-166.43
-157.83
-156.57
-160.76
-165.26
-163.38
-149.56
-121.60
-81.44
-34.05
14.54
58.81
94.09
116.57
123.70
115.53
96.02
72.84
54.84
48.16
53.37
65.70
78.37
86.81
91.15
95.32
103.69
117.45
133.44
145.74
149.36
143.07
130.02
115.73
104.85
98.83
95.82
92.85
88.64
85.20
86.77
96.93
115.51
137.66
155.64
162.51
155.55
137.15
112.89
88.21
65.99
46.53
29.38
15.37
6.98
6.46
13.49
24.10
32.27
32.95
24.55
9.21
-9.15
-27.57
-45.51
-64.20
-84.78
-106.60
-127.07
-143.02
-152.20
-153.99
-149.21
-139.55
-127.22
-115.04
-106.01
-102.32
-104.20
-109.44
-113.83
-113.00
-104.20
-87.30
-64.70
-40.33
-18.52
-3.10
3.70
2.17
-4.42
-10.41
-9.88
0.55
19.66
41.59
58.43
63.83
55.79
37.21
14.15
-6.84
-20.92
-25.66
-20.40
-5.23
19.35
51.75
87.99
121.32
143.24
146.12
126.78
88.78
42.01
-0.99
-30.06
-41.29
-37.64
-26.34
-14.40
-5.33
1.34
7.97
16.12
24.85
31.40
32.81
27.48
15.60
-1.27
-20.97
-41.09
-58.93
-71.73
-77.20
-74.26
-63.30
-45.89
-24.12
-0.47
22.30
41.11
52.97
56.06
50.61
39.01
24.90
11.64
1.09
-6.50
-11.78
-15.30
-17.01
-16.75
-15.07
-13.59
-14.50
-19.31
-27.73
-37.52
-45.39
-48.40
-45.11
-35.84
-22.28
-6.80
8.07
20.00
27.02
28.02
23.31
14.93
6.28
0.99
1.49
7.96
18.40
29.61
38.54
43.48
44.27
41.92
37.81
32.95
27.77
22.34
16.80
11.79
8.49
8.24
11.75
18.50
26.61
33.49
36.82
35.65
30.60
23.43
15.84
8.63
1.68
-5.38
-12.27
-17.70
-19.81
-17.30
-10.23
-0.28
9.94
17.93
22.24
22.61
19.87
15.37
10.56
6.68
4.60
4.52
6.00
8.00
9.25
8.77
6.12
1.38
-4.96
-11.99
-18.33
-21.84
-20.01
-10.83
6.01
28.17
50.96
68.92
78.09
77.71
70.57
61.48
55.09
53.96
57.89
64.64
71.46
76.30
78.19
76.86
71.93
62.65
48.07
27.79
2.58
-25.39
-52.86
-76.39
-93.41
-103.20
-107.08
-107.89
-108.74
-111.75
-117.53
-125.40
-134.14
-142.67
-150.20
-155.83
-158.43
-156.91
-150.93
-141.57
-131.25
-122.61
-117.03
-113.60
-109.35
-100.61
-84.78
-61.58
-33.14
-3.06
25.12
49.29
69.46
87.52
106.37
128.39
154.15
181.71
207.11
225.77
234.28
231.60
219.24
200.27
177.93
154.55
131.28
108.70
87.50
68.89
54.22
44.32
38.79
35.92
33.26
28.64
21.05
11.03
0.32
-8.99
-15.30
-18.09
-17.99
-16.38
-14.57
-13.36
-12.75
-12.18
-10.97
-8.79
-5.86
-2.82
-0.41
0.92
1.10
0.49
-0.38
-1.08
-1.37
-1.35
-1.31
-1.61
-2.42
-3.72
-5.21
-6.56
-7.53
-8.13
-8.59
-9.26
-10.39
-11.99
-13.85
-15.63
-17.07
-18.18
-19.19
-20.41
-22.04
-24.04
-26.11
-27.93
-29.27
-30.16
-30.86
-31.63
-32.50
-33.19
-33.23
-32.20
-30.07
-27.19
-24.18
-21.64
-19.88
-18.86
-18.27
-17.80
-17.27
-16.71
-16.28
-16.05
-15.94
-15.79
-15.43
-14.76
-13.90
-13.12
-12.76
-12.98
-13.59
-14.11
-14.27
-13.89
-13.20
-12.71
-13.08
-14.80
-17.87
-21.60
-24.84
-27.04
-27.99
-28.06
-27.96
-28.47
-30.06
-32.67
-35.80
-38.59
-41.30
-44.19
-47.39
-50.76
-54.09
-57.57
-62.27
-70.08
-83.10
-104.21
-134.68
-173.46
-217.24
-261.47
-302.15
-337.15
-366.84
-383.25
-380.93
-356.39
-309.51
-243.96
-166.05
-83.12
-1.68
73.35
139.23
193.90
237.15
270.13
294.55
312.06
323.43
329.56
330.79
327.19
317.48
300.57
275.82
243.62
205.54
163.72
120.96
80.05
43.37
11.78
-14.61
-36.29
-53.88
-64.81
-68.06
-63.72
-53.04
-38.15
-21.73
-5.96
7.75
18.59
25.82
27.69
21.80
5.78
-21.88
-61.08
-110.00
-165.67
-224.35
-281.68
-332.85
-372.18
-393.71
-392.60
-366.92
-318.54
-253.15
-178.54
-102.64
-31.91
29.59
80.16
119.70
149.17
170.33
185.46
197.41
209.15
223.34
242.12
266.47
295.65
326.84
355.47
376.16
384.43
378.02
357.27
324.54
282.63
233.65
178.64
118.31
54.02
-11.76
-75.78
-135.14
-188.36
-236.03
-280.14
-322.61
-363.35
-399.11
-423.85
-430.88
-416.08
-380.39
-330.40
-276.08
-226.97
-188.53
-160.65
-139.01
-118.08
-94.22
-66.85
-37.66
-8.64
19.58
47.90
77.56
108.65
139.25
165.61
183.43
189.34
181.70
160.56
127.11
82.90
29.34
-32.28
-100.04
-170.47
-237.75
-294.02
-330.95
-342.27
-326.08
-285.76
-229.01
-165.18
-102.37
-45.77
1.92
38.94
63.19
72.40
65.95
46.71
21.54
-0.39
-10.76
-5.05
16.34
48.83
86.07
122.33
153.87
179.08
197.72
210.08
216.65
218.39
217.14
215.83
217.80
225.60
239.69
257.70
274.91
285.99
287.04
277.08
258.30
234.92
211.25
190.29
173.02
158.86
146.73
135.90
126.26
118.11
111.63
106.66
102.71
99.24
95.95
92.84
90.07
87.43
83.92
77.58
65.78
45.89
16.19
-23.60
-72.00
-125.89
-180.83
-231.56
-272.66
-299.60
-309.72
-303.00
-281.96
-250.88
-214.54
-177.16
-141.76
-110.37
-84.43
-65.10
-53.03
-47.92
-48.21
-51.37
-54.74
-56.50
-56.28
-55.06
-54.53
-56.07
-59.94
-65.17
-69.96
-72.40
-71.30
-66.40
-58.19
-47.26
-33.85
-17.60
2.18
25.98
53.74
84.65
117.36
150.17
181.40
209.34
232.39
249.00
257.87
258.20
249.87
233.65
211.04
184.07
155.00
126.03
99.02
75.34
55.74
40.26
28.42
19.41
12.26
6.20
0.73
-4.35
-9.03
-13.19
-16.83
-20.06
-23.11
-26.32
-30.01
-34.32
-39.11
-43.96
-48.18
-51.09
-52.11
-50.95
-47.63
-42.47
-35.96
-28.68
-21.26
-14.30
-8.41
-4.04
-1.43
-0.52
-0.89
-1.96
-3.15
-4.06
-4.63
-5.06
-5.68
-6.76
-8.37
-10.30
-12.12
-13.37
-13.63
-12.75
-10.86
-8.28
-5.51
-3.00
-1.10
0.07
0.48
0.14
-0.94
-2.77
-5.44
-9.06
-13.82
-19.98
-27.79
-37.23
-47.90
-58.96
-69.21
-77.48
-82.84
-84.89
-83.76
-79.96
-74.19
-67.19
-59.65
-52.18
-45.32
-39.42
-34.63
-30.88
-27.90
-25.42
-23.33
-21.81
-21.34
-22.63
-26.27
-32.41
-40.50
-49.21
-56.77
-61.41
-61.80
-57.49
-48.96
-37.44
-24.53
-11.71
0.13
10.92
21.17
31.69
42.91
54.61
65.76
74.95
80.94
83.24
82.30
79.26
75.40
71.57
68.03
64.52
60.59
55.98
50.78
45.44
40.49
36.32
32.97
30.14
27.36
24.05
19.69
13.88
6.34
-2.98
-13.95
-26.15
-39.06
-52.05
-64.52
-75.90
-85.78
-93.84
-100.00
-104.46
-107.57
-109.85
-111.71
-113.24
-114.16
-113.90
-112.01
-108.36
-103.46
-98.29
-94.13
-92.17
-93.13
-97.00
-102.78
-108.68
-112.50
-112.18
-106.29
-94.24
-76.23
-53.09
-26.22
2.58
31.06
56.78
77.73
92.80
102.23
107.35
109.89
110.97
110.67
108.06
101.86
91.24
76.20
57.52
36.49
14.83
-5.36
-21.40
-30.45
-30.27
-20.35
-2.63
18.86
39.30
55.12
65.36
71.87
78.11
87.18
100.33
116.47
133.08
147.53
158.20
164.76
167.68
167.49
164.38
158.17
148.93
137.40
125.13
114.04
105.73
100.86
98.96
98.71
98.51
96.92
92.72
84.92
72.54
54.67
30.89
1.65
-31.47
-65.76
-97.90
-124.52
-142.85
-151.17
-149.05
-137.41
-118.36
-94.84
-70.06
-46.90
-27.48
-12.94
-3.41
1.63
3.16
2.28
0.01
-2.86
-5.86
-8.76
-11.50
-13.98
-15.97
-17.13
-17.18
-15.93
-13.32
-9.38
-4.18
2.22
9.69
17.98
26.74
35.60
44.27
52.64
60.68
68.34
75.40
81.48
86.06
88.70
89.14
87.47
84.12
79.81
75.42
71.67
68.88
66.84
64.96
62.56
59.24
54.89
49.65
43.65
36.87
29.21
20.73
11.90
3.53
-3.39
-8.23
-11.05
-12.70
-14.85
-19.70
-29.59
-46.42
-70.92
-102.03
-136.81
-170.93
-199.79
-219.69
-228.75
-226.99
-215.91
-197.68
-174.56
-148.69
-122.09
-96.71
-74.25
-55.75
-41.36
-30.28
-21.24
-12.93
-4.55
4.11
12.67
20.47
26.96
31.86
35.25
37.53
39.17
40.62
42.01
43.21
43.82
43.48
41.94
39.33
36.02
32.50
29.10
25.86
22.52
18.70
14.14
8.81
2.96
-2.94
-8.41
-12.99
-16.37
-18.44
-19.28
-19.21
-18.75
-18.46
-18.69
-19.45
-20.33
-20.57
-19.47
-16.66
-12.35
-7.13
-1.82
2.96
6.94
10.16
12.88
15.29
17.47
19.34
20.77
21.65
22.00
21.93
21.62
21.29
21.13
21.26
21.75
22.57
23.63
24.86
26.16
27.37
28.29
28.64
28.11
26.53
23.91
20.48
16.61
12.62
8.67
4.73
0.69
-3.50
-7.72
-11.72
-15.20
-18.00
-20.16
-21.89
-23.50
-25.28
-27.42
-29.93
-32.61
-35.02
-36.60
-36.79
-35.24
-31.94
-27.21
-21.59
-15.64
-9.81
-4.47
0.15
3.87
6.65
8.52
9.67
10.32
10.70
10.86
10.73
10.22
9.31
8.18
7.10
6.34
5.98
5.92
5.88
5.61
5.02
4.26
3.61
3.28
3.33
3.63
3.92
3.95
3.60
2.85
1.81
0.60
-0.71
-2.02
-3.30
-4.55
-5.80
-7.17
-8.85
-11.00
-13.66
-16.64
-19.50
-21.65
-22.56
-21.85
-19.56
-15.95
-11.53
-6.83
-2.32
1.67
4.84
7.03
8.22
8.57
8.47
8.35
8.60
9.41
10.74
12.33
13.91
15.29
16.40
17.27
17.90
18.33
18.53
18.51
18.29
17.94
17.49
16.91
16.11
14.91
13.23
11.15
8.87
6.63
4.62
2.77
0.79
-1.68
-4.96
-9.10
-13.89
-18.85
-23.44
-27.13
-29.50
-30.23
-29.06
-25.94
-20.98
-14.61
-7.50
-0.46
5.79
10.75
14.23
16.37
17.42
17.73
17.55
16.99
16.12
14.99
13.70
12.41
11.24
10.34
9.79
9.62
9.77
10.15
10.55
10.78
10.65
10.09
9.13
7.83
6.18
4.12
1.57
-1.46
-4.76
-7.95
-10.58
-12.37
-13.26
-13.41
-13.08
-12.45
-11.74
-11.15
-11.04
-11.86
-13.96
-17.35
-21.61
-25.90
-29.31
-31.10
-31.07
-29.50
-27.02
-24.32
-21.85
-19.70
-17.66
-15.39
-12.62
-9.38
-6.02
-3.08
-1.02
-0.02
0.07
-0.36
-0.88
-1.24
-1.45
-1.77
-2.46
-3.61
-5.04
-6.36
-7.07
-6.77
-5.35
-3.03
-0.38
1.96
3.42
3.74
2.98
1.50
-0.29
-2.06
-3.61
-4.80
-5.51
-5.54
-4.77
-3.18
-0.89
1.92
5.21
9.20
14.22
20.56
28.15
36.55
45.04
52.82
59.18
63.47
65.12
63.51
58.18
49.13
37.04
23.38
10.06
-1.12
-8.94
-13.10
-14.09
-12.93
-10.70
-8.29
-6.32
-5.10
-4.75
-5.28
-6.51
-8.19
-10.06
-11.85
-13.41
-14.71
-15.82
-16.86
-17.93
-19.01
-20.06
-20.99
-21.82
-22.64
-23.61
-24.83
-26.21
-27.44
-28.05
-27.62
-25.90
-22.93
-19.02
-14.59
-10.07
-5.84
-2.16
0.76
2.80
3.91
4.18
3.81
3.08
2.29
1.63
1.28
1.23
1.48
1.95
2.51
3.05
3.41
3.47
3.12
2.36
1.28
0.09
-1.02
-1.88
-2.44
-2.79
-3.05
-3.30
-3.55
-3.80
-4.03
-4.32
-4.82
-5.58
-6.57
-7.62
-8.49
-9.07
-9.44
-9.81
-10.46
-11.48
-12.64
-13.52
-13.64
-12.67
-10.59
-7.68
-4.38
-1.12
1.78
4.16
5.98
7.25
8.07
8.55
8.83
8.98
8.98
8.75
8.24
7.52
6.83
6.48
6.67
7.41
8.44
9.38
9.92
9.95
9.52
8.79
7.85
6.71
5.34
3.82
2.31
1.02
0.09
-0.56
-1.11
-1.84
-2.91
-4.30
-5.79
-7.15
-8.24
-9.05
-9.74
-10.48
-11.42
-12.63
-14.03
-15.51
-16.90
-18.04
-18.76
-18.91
-18.28
-16.76
-14.33
-11.13
-7.55
-4.08
-1.23
0.67
1.56
1.73
1.61
1.60
1.86
2.28
2.60
2.59
2.25
1.81
1.61
1.83
2.39
3.02
3.44
3.55
3.49
3.56
3.97
4.71
5.46
5.83
5.57
4.64
3.25
1.79
0.53
-0.43
-1.15
-1.83
-2.61
-3.55
-4.57
-5.57
-6.41
-7.12
-7.78
-8.56
-9.53
-10.70
-11.90
-12.89
-13.36
-13.09
-12.00
-10.22
-7.97
-5.50
-3.04
-0.74
1.31
3.14
4.75
6.15
7.36
8.40
9.20
9.72
9.94
9.89
9.70
9.59
9.73
10.16
10.76
11.23
11.37
11.01
10.20
9.07
7.81
6.47
5.04
3.43
1.63
-0.22
-1.95
-3.38
-4.47
-5.27
-5.92
-6.48
-6.96
-7.29
-7.41
-7.33
-7.20
-7.15
-7.33
-7.78
-8.52
-9.52
-10.78
-12.25
-13.88
-15.64
-17.49
-19.38
-21.25
-22.94
-24.18
-24.60
-23.79
-21.56
-18.00
-13.48
-8.63
-4.06
-0.22
2.72
4.84
6.34
7.46
8.38
9.18
9.89
10.52
11.09
11.58
11.95
12.18
12.28
12.37
12.60
13.07
13.85
14.84
15.81
16.46
16.52
15.89
14.73
13.29
11.90
10.82
10.13
9.79
9.64
9.51
9.28
8.88
8.26
7.37
6.18
4.70
3.03
1.33
-0.22
-1.52
-2.52
-3.31
-3.99
-4.73
-5.67
-6.94
-8.63
-10.68
-12.93
-15.00
-16.48
-16.97
-16.27
-14.38
-11.56
-8.20
-4.71
-1.46
1.34
3.59
5.26
6.40
7.06
7.36
7.41
7.35
7.34
7.45
7.68
7.99
8.32
8.57
8.72
8.71
8.57
8.32
8.01
7.70
7.44
7.23
7.06
6.87
6.62
6.27
5.80
5.22
4.53
3.75
2.84
1.75
0.47
-1.00
-2.61
-4.30
-5.98
-7.59
-9.16
-10.72
-12.36
-14.04
-15.72
-17.28
-18.64
-19.76
-20.63
-21.28
-21.64
-21.65
-21.11
-19.86
-17.76
-14.84
-11.32
-7.61
-4.18
-1.43
0.48
1.69
2.50
3.24
4.07
4.90
5.55
5.83
5.78
5.57
5.46
5.60
5.97
6.43
6.83
7.09
7.22
7.25
7.19
6.95
6.48
5.74
4.82
3.83
2.85
1.91
1.00
0.11
-0.75
-1.53
-2.18
-2.69
-3.09
-3.46
-3.88
-4.45
-5.27
-6.41
-7.91
-9.69
-11.57
-13.38
-14.96
-16.21
-17.03
-17.26
-16.74
-15.34
-13.05
-10.10
-6.82
-3.57
-0.58
2.02
4.16
5.84
6.94
7.43
7.32
6.74
5.96
5.22
4.70
4.43
4.41
4.57
4.88
5.29
5.76
6.22
6.61
6.90
7.06
7.10
6.96
6.53
5.63
4.24
2.45
0.59
-0.99
-2.08
-2.66
-2.98
-3.31
-3.86
-4.63
-5.50
-6.31
-7.01
-7.69
-8.53
-9.68
-11.13
-12.73
-14.28
-15.51
-16.17
-16.08
-15.22
-13.64
-11.56
-9.21
-6.83
-4.61
-2.71
-1.23
-0.21
0.32
0.42
0.14
-0.39
-1.04
-1.68
-2.20
-2.50
-2.51
-2.17
-1.55
-0.81
-0.16
0.32
0.74
1.47
2.97
5.50
9.02
13.08
16.98
20.10
22.12
23.10
23.38
23.33
23.15
22.79
22.05
20.71
18.63
15.83
12.39
8.44
4.04
-0.77
-5.82
-10.89
-15.63
-19.73
-22.97
-25.37
-27.00
-27.94
-28.12
-27.32
-25.35
-22.09
-17.72
-12.66
-7.44
-2.54
1.76
5.28
8.05
10.09
11.58
12.70
13.72
14.89
16.38
18.19
20.17
22.15
23.98
25.71
27.55
29.78
32.68
36.25
40.22
44.03
47.05
48.68
48.61
46.89
43.88
40.19
36.49
33.46
31.59
31.14
31.86
33.10
33.87
33.28
30.99
27.59
24.33
22.55
22.81
24.39
25.38
23.47
16.93
5.29
-10.55
-28.81
-47.54
-65.06
-80.19
-92.04
-99.91
-103.39
-102.47
-97.80
-90.54
-82.19
-74.02
-66.93
-61.24
-56.82
-53.36
-50.44
-47.67
-44.72
-41.37
-37.47
-33.07
-28.25
-23.12
-17.68
-11.84
-5.43
1.60
9.07
16.66
23.94
30.66
36.86
42.76
48.55
54.16
59.13
62.77
64.43
63.72
60.75
56.03
50.27
44.14
38.13
32.49
27.43
23.04
19.31
16.08
13.04
9.80
6.20
2.35
-1.26
-4.03
-5.47
-5.49
-4.38
-2.70
-1.06
0.18
0.96
1.48
2.08
3.16
4.99
7.71
11.29
15.58
20.46
25.87
31.80
38.17
44.70
50.87
55.93
59.20
60.21
58.86
55.33
50.02
43.49
36.30
29.02
21.99
15.20
8.03
-0.60
-11.91
-26.66
-44.93
-65.90
-88.21
-110.47
-131.61
-151.12
-169.05
-185.85
-202.01
-217.71
-232.33
-244.57
-252.84
-255.93
-253.63
-246.71
-236.35
-223.27
-207.18
-187.21
-162.85
-134.97
-105.85
-78.23
-53.78
-32.13
-11.21
11.39
36.60
63.19
88.41
109.61
125.71
137.77
148.23
159.54
172.83
187.55
201.99
214.43
223.95
230.63
235.21
238.36
240.02
239.24
234.38
223.83
206.75
183.52
155.86
126.32
97.57
71.66
49.58
31.18
15.52
1.24
-12.95
-27.96
-44.09
-60.86
-77.00
-90.65
-99.84
-103.25
-100.81
-93.94
-85.33
-78.04
-74.65
-76.49
-83.30
-93.55
-104.92
-114.93
-121.63
-123.83
-121.40
-115.35
-107.45
-99.77
-93.91
-90.37
-88.23
-85.47
-79.66
-68.86
-52.28
-30.61
-5.76
19.72
43.28
62.92
77.57
87.28
93.15
97.01
100.64
104.86
108.93
110.52
106.52
94.36
73.33
45.25
14.08
-15.16
-37.93
-51.20
-53.99
-47.12
-32.62
-13.17
8.35
29.18
46.94
59.93
67.43
69.67
67.72
63.07
57.05
50.57
44.05
37.63
31.41
25.66
20.73
16.97
14.57
13.47
13.46
14.27
15.64
17.25
18.74
19.69
19.82
19.16
18.02
16.94
16.33
16.26
16.43
16.33
15.47
13.70
11.24
8.52
6.04
4.03
2.46
1.07
-0.38
-2.01
-3.74
-5.35
-6.66
-7.61
-8.28
-8.85
-9.44
-10.01
-10.44
-10.52
-10.08
-9.09
-7.66
-6.00
-4.39
-3.10
-2.27
-1.94
-2.05
-2.41
-2.88
-3.38
-3.88
-4.38
-4.86
-5.21
-5.29
-4.99
-4.31
-3.44
-2.70
-2.43
-2.90
-4.26
-6.40
-9.08
-11.94
-14.60
-16.81
-18.41
-19.34
-19.57
-19.05
-17.67
-15.36
-12.16
-8.28
-4.08
0.04
3.74
6.83
9.30
11.23
12.70
13.73
14.34
14.54
14.46
14.22
13.97
13.78
13.68
13.61
13.50
13.38
13.30
13.28
13.25
13.03
12.43
11.35
9.81
7.97
6.08
4.34
2.83
1.51
0.27
-0.99
-2.32
-3.65
-4.85
-5.81
-6.47
-6.88
-7.17
-7.46
-7.87
-8.45
-9.21
-10.17
-11.36
-12.80
-14.38
-15.86
-16.86
-17.05
-16.25
-14.61
-12.49
-10.33
-8.49
-7.14
-6.30
-5.86
-5.74
-5.87
-6.20
-6.62
-7.03
-7.27
-7.20
-6.78
-5.95
-4.81
-3.53
-2.33
-1.48
-1.13
-1.28
-1.68
-2.08
-2.23
-2.07
-1.72
-1.38
-1.22
-1.28
-1.56
-1.93
-2.37
-2.86
-3.41
-4.08
-4.86
-5.81
-6.94
-8.26
-9.67
-11.01
-11.97
-12.31
-11.84
-10.49
-8.38
-5.71
-2.75
0.22
2.98
5.34
7.19
8.43
9.10
9.26
9.09
8.84
8.76
8.97
9.46
10.04
10.43
10.49
10.17
9.58
8.94
8.43
8.13
7.98
7.82
7.46
6.80
5.85
4.72
3.56
2.52
1.67
0.96
0.34
-0.24
-0.78
-1.25
-1.66
-2.10
-2.70
-3.57
-4.70
-5.99
-7.24
-8.31
-9.14
-9.66
-9.88
-9.70
-9.01
-7.70
-5.74
-3.30
-0.66
1.81
3.84
5.24
6.04
6.42
6.63
6.84
7.10
7.29
7.25
6.91
6.32
5.69
5.27
5.13
5.18
5.21
5.02
4.51
3.79
2.96
2.16
1.36
0.43
-0.71
-2.01
-3.30
-4.35
-4.92
-4.98
-4.65
-4.16
-3.78
-3.70
-3.98
-4.60
-5.53
-6.71
-8.11
-9.65
-11.16
-12.46
-13.37
-13.79
-13.68
-13.08
-11.97
-10.28
-7.96
-5.04
-1.75
1.52
4.30
6.24
7.19
7.21
6.45
5.14
3.52
1.90
0.58
-0.16
-0.14
0.57
1.73
3.00
4.05
4.71
4.96
4.97
4.88
4.78
4.70
4.55
4.22
3.60
2.71
1.65
0.62
-0.20
-0.78
-1.20
-1.61
-2.20
-3.04
-4.12
-5.38
-6.73
-8.10
-9.47
-10.81
-12.03
-13.02
-13.58
-13.57
-12.84
-11.36
-9.17
-6.44
-3.48
-0.62
1.82
3.67
4.93
5.71
6.18
6.40
6.39
6.17
5.78
5.34
5.02
4.94
5.10
5.39
5.63
5.69
5.52
5.18
4.77
4.37
3.97
3.50
2.88
2.07
1.09
0.03
-1.05
-2.12
-3.20
-4.31
-5.43
-6.42
-7.16
-7.52
-7.58
-7.55
-7.72
-8.27
-9.24
-10.40
-11.40
-11.85
-11.43
-10.01
-7.71
-4.85
-1.87
0.76
2.79
4.14
4.96
5.45
5.76
5.89
5.76
5.31
4.56
3.73
3.04
2.70
2.80
3.33
4.19
5.21
6.20
6.88
7.07
6.66
5.70
4.38
2.92
1.53
0.30
-0.81
-1.97
-3.29
-4.81
-6.43
-7.96
-9.18
-9.93
-10.23
-10.18
-9.99
-9.85
-9.88
-10.14
-10.60
-11.21
-11.86
-12.38
-12.61
-12.37
-11.51
-10.01
-8.01
-5.71
-3.38
-1.25
0.58
2.06
3.20
3.99
4.40
4.42
4.04
3.36
2.57
1.92
1.68
2.01
2.92
4.27
5.82
7.33
8.56
9.32
9.48
9.04
8.05
6.63
4.93
3.11
1.31
-0.42
-2.04
-3.52
-4.88
-6.14
-7.31
-8.39
-9.37
-10.19
-10.83
-11.35
-11.80
-12.23
-12.60
-12.76
-12.43
-11.40
-9.58
-7.09
-4.19
-1.22
1.56
3.99
5.97
7.44
8.33
8.60
8.29
7.59
6.74
5.99
5.51
5.30
5.31
5.57
6.16
7.20
8.70
10.51
12.26
13.56
14.12
13.81
12.81
11.38
9.80
8.23
6.73
5.33
4.09
3.06
2.23
1.55
0.87
0.03
-1.03
-2.26
-3.52
-4.62
-5.50
-6.19
-6.86
-7.72
-8.84
-10.20
-11.59
-12.77
-13.43
-13.37
-12.47
-10.69
-8.19
-5.19
-2.01
1.01
3.64
5.80
7.42
8.55
9.14
9.17
8.67
7.80
6.81
5.99
5.54
5.49
5.77
6.23
6.75
7.28
7.77
8.14
8.29
8.14
7.75
7.26
6.79
6.35
5.86
5.19
4.27
3.18
2.11
1.24
0.61
0.15
-0.31
-0.85
-1.49
-2.21
-2.94
-3.71
-4.51
-5.39
-6.27
-7.12
-7.96
-8.82
-9.80
-10.92
-12.10
-13.13
-13.76
-13.73
-12.89
-11.23
-8.85
-6.01
-2.98
-0.13
2.26
3.98
4.94
5.22
4.99
4.51
4.04
3.78
3.81
4.07
4.40
4.60
4.56
4.31
4.06
3.99
4.20
4.69
5.29
5.85
6.25
6.50
6.67
6.78
6.77
6.54
6.00
5.15
4.08
2.93
1.83
0.77
-0.28
-1.29
-2.20
-2.88
-3.27
-3.37
-3.33
-3.30
-3.42
-3.70
-4.07
-4.47
-4.88
-5.39
-6.12
-7.18
-8.58
-10.22
-11.87
-13.17
-13.71
-13.21
-11.52
-8.81
-5.51
-2.12
0.83
3.08
4.56
5.41
5.89
6.21
6.46
6.59
6.50
6.08
5.34
4.47
3.77
3.60
4.15
5.43
7.23
9.13
10.75
11.79
12.19
12.06
11.64
11.09
10.48
9.73
8.74
7.41
5.76
3.97
2.27
0.88
-0.09
-0.65
-0.90
-1.01
-1.11
-1.33
-1.73
-2.37
-3.21
-4.14
-4.98
-5.56
-5.83
-5.90
-6.04
-6.55
-7.62
-9.22
-11.06
-12.67
-13.61
-13.56
-12.42
-10.34
-7.65
-4.77
-2.07
0.19
1.94
3.23
4.25
5.15
6.06
6.99
7.91
8.77
9.56
10.23
10.74
11.05
11.08
10.81
10.24
9.41
8.43
7.42
6.51
5.79
5.27
4.88
4.49
4.01
3.40
2.69
1.94
1.19
0.51
-0.09
-0.59
-0.97
-1.23
-1.43
-1.64
-2.00
-2.61
-3.49
-4.59
-5.80
-6.96
-7.98
-8.83
-9.58
-10.36
-11.29
-12.42
-13.65
-14.77
-15.51
-15.56
-14.78
-13.17
-10.89
-8.22
-5.50
-3.05
-1.07
0.40
1.47
2.35
3.18
4.01
4.81
5.46
5.85
5.98
5.94
5.88
5.89
5.98
6.04
5.98
5.73
5.37
4.99
4.76
4.70
4.73
4.68
4.41
3.83
2.95
1.89
0.70
-0.59
-2.03
-3.65
-5.37
-7.02
-8.43
-9.50
-10.21
-10.70
-11.13
-11.58
-12.05
-12.51
-12.91
-13.25
-13.49
-13.53
-13.13
-12.01
-9.94
-6.98
-3.44
0.07
2.95
4.80
5.56
5.54
5.24
5.12
5.39
5.94
6.48
6.68
6.39
5.73
4.96
4.39
4.19
4.32
4.62
4.83
4.74
4.25
3.43
2.43
1.46
0.71
0.26
0.07
-0.03
-0.22
-0.69
-1.48
-2.56
-3.83
-5.18
-6.53
-7.80
-8.96
-9.96
-10.82
-11.58
-12.30
-13.02
-13.69
-14.19
-14.39
-14.16
-13.45
-12.22
-10.52
-8.40
-5.91
-3.17
-0.38
2.18
4.28
5.74
6.60
6.96
7.00
6.94
6.92
7.02
7.28
7.72
8.26
8.81
9.25
9.51
9.57
9.49
9.36
9.21
9.02
8.70
8.16
7.39
6.45
5.42
4.34
3.19
1.94
0.61
-0.75
-1.99
-2.98
-3.68
-4.13
-4.49
-4.95
-5.72
-6.92
-8.61
-10.73
-13.12
-15.48
-17.44
-18.60
-18.70
-17.60
-15.43
-12.44
-8.97
-5.35
-1.83
1.43
4.28
6.59
8.23
9.14
9.35
9.04
8.44
7.83
7.37
7.17
7.23
7.55
8.07
8.73
9.38
9.83
9.91
9.57
8.85
7.88
6.84
5.84
4.86
3.87
2.76
1.50
0.07
-1.47
-3.06
-4.60
-6.02
-7.25
-8.23
-8.93
-9.33
-9.49
-9.47
-9.42
-9.44
-9.60
-9.93
-10.34
-10.57
-10.25
-8.90
-6.10
-1.64
4.39
11.59
19.32
26.84
33.50
38.81
42.49
44.48
44.89
43.99
42.19
39.90
37.43
34.92
32.23
29.07
25.14
20.33
14.81
9.09
3.84
-0.21
-2.62
-3.26
-2.40
-0.52
1.77
3.84
5.15
5.28
3.92
0.98
-3.37
-8.67
-14.29
-19.62
-24.19
-27.82
-30.57
-32.71
-34.53
-36.25
-37.95
-39.53
-40.72
-41.16
-40.50
-38.64
-35.81
-32.57
-29.60
-27.46
-26.29
-25.80
-25.36
-24.28
-22.15
-18.96
-15.05
-10.97
-7.23
-4.13
-1.64
0.51
2.65
5.11
7.99
11.15
14.18
16.62
18.06
18.38
17.80
16.72
15.61
14.81
14.37
14.13
13.83
13.20
12.12
10.58
8.69
6.61
4.49
2.51
0.78
-0.67
-1.95
-3.35
-5.15
-7.55
-10.32
-12.91
-14.45
-14.18
-11.80
-7.71
-2.85
1.70
5.06
6.97
7.64
7.54
7.10
6.53
5.89
5.22
4.78
4.89
5.85
7.69
10.06
12.46
14.32
15.34
15.48
14.99
14.21
13.39
12.70
12.08
11.45
10.67
9.69
8.51
7.30
6.19
5.30
4.58
3.80
2.77
1.37
-0.33
-2.10
-3.70
-5.02
-6.11
-7.13
-8.21
-9.26
-10.10
-10.57
-10.66
-10.57
-10.68
-11.35
-12.77
-14.95
-17.66
-20.47
-22.85
-24.21
-24.04
-22.11
-18.51
-13.70
-8.40
-3.39
0.77
3.75
5.71
6.95
7.86
8.73
9.65
10.49
11.07
11.30
11.20
10.99
10.88
10.99
11.32
11.70
11.89
11.69
11.00
9.79
8.17
6.21
4.06
1.84
-0.27
-2.12
-3.57
-4.56
-5.21
-5.73
-6.41
-7.46
-8.97
-10.88
-13.03
-15.23
-17.31
-19.17
-20.65
-21.49
-21.40
-20.12
-17.60
-14.06
-9.99
-5.90
-2.26
0.72
3.07
4.89
6.34
7.46
8.21
8.57
8.64
8.59
8.69
9.10
9.83
10.75
11.61
12.22
12.44
12.31
11.96
11.55
11.23
10.99
10.73
10.22
9.24
7.67
5.59
3.24
0.96
-0.99
-2.52
-3.69
-4.68
-5.73
-6.99
-8.59
-10.57
-12.80
-15.06
-16.95
-18.07
-18.10
-16.91
-14.64
-11.53
-7.95
-4.18
-0.47
2.92
5.85
8.17
9.83
10.87
11.39
11.52
11.39
11.11
10.77
10.49
10.32
10.32
10.44
10.61
10.72
10.74
10.64
10.44
10.17
9.74
9.06
8.00
6.46
4.51
2.35
0.29
-1.40
-2.53
-3.18
-3.62
-4.16
-5.06
-6.44
-8.23
-10.33
-12.65
-15.12
-17.56
-19.61
-20.76
-20.46
-18.43
-14.79
-10.08
-5.06
-0.43
3.41
6.39
8.70
10.53
11.99
13.06
13.66
13.81
13.58
13.17
12.78
12.51
12.38
12.34
12.35
12.40
12.53
12.78
13.11
13.40
13.46
13.17
12.46
11.44
10.27
9.07
7.91
6.71
5.36
3.76
1.91
-0.16
-2.32
-4.48
-6.61
-8.68
-10.70
-12.71
-14.74
-16.81
-18.96
-21.10
-23.01
-24.35
-24.73
-23.86
-21.68
-18.36
-14.26
-9.89
-5.64
-1.78
1.54
4.30
6.45
8.00
8.96
9.47
9.72
9.91
10.14
10.36
10.44
10.24
9.79
9.31
9.06
9.23
9.77
10.33
10.48
9.90
8.53
6.60
4.53
2.66
1.17
-0.01
-1.08
-2.26
-3.66
-5.26
-6.94
-8.54
-10.00
-11.34
-12.68
-14.12
-15.79
-17.71
-19.84
-21.99
-23.84
-24.99
-25.03
-23.62
-20.69
-16.46
-11.40
-6.03
-0.90
3.68
7.50
10.50
12.61
13.75
13.88
13.11
11.74
10.23
9.08
8.67
9.08
10.14
11.46
12.66
13.49
13.91
13.95
13.71
13.22
12.37
11.09
9.39
7.46
5.56
3.90
2.55
1.45
0.47
-0.52
-1.53
-2.58
-3.76
-5.27
-7.36
-10.17
-13.54
-16.93
-19.59
-20.72
-19.83
-16.93
-12.45
-7.10
-1.61
3.45
7.74
11.05
13.34
14.52
14.60
13.71
12.15
10.37
8.82
7.86
7.54
7.72
8.05
8.24
8.18
7.94
7.70
7.52
7.34
6.96
6.18
4.91
3.20
1.22
-0.86
-2.89
-4.76
-6.37
-7.67
-8.71
-9.62
-10.63
-11.91
-13.43
-14.93
-15.94
-15.96
-14.66
-11.96
-8.09
-3.49
1.29
5.75
9.50
12.33
14.22
15.30
15.77
15.83
15.61
15.09
14.27
13.14
11.83
10.58
9.72
9.47
9.90
10.82
11.83
12.53
12.57
11.90
10.61
8.89
6.89
4.73
2.45
0.16
-2.01
-3.97
-5.79
-7.67
-9.85
-12.43
-15.17
-17.56
-18.91
-18.61
-16.40
-12.43
-7.20
-1.38
4.41
9.68
14.14
17.63
20.11
21.56
22.05
21.69
20.69
19.38
18.02
16.88
16.18
16.00
16.29
16.87
17.43
17.68
17.47
16.79
15.77
14.61
13.41
12.14
10.72
9.08
7.27
5.45
3.81
2.48
1.41
0.42
-0.72
-2.19
-4.09
-6.35
-8.83
-11.29
-13.49
-15.29
-16.74
-18.06
-19.50
-21.33
-23.61
-26.17
-28.65
-30.57
-31.46
-30.96
-28.91
-25.41
-20.72
-15.33
-9.79
-4.56
0.03
3.91
7.16
9.96
12.45
14.64
16.40
17.64
18.33
18.59
18.62
18.67
18.90
19.32
19.82
20.25
20.42
20.26
19.73
18.91
17.93
16.91
15.91
14.85
13.63
12.15
10.48
8.78
7.25
5.98
4.83
3.55
1.85
-0.36
-2.92
-5.55
-7.93
-9.90
-11.51
-12.93
-14.33
-15.85
-17.54
-19.44
-21.61
-24.02
-26.52
-28.80
-30.41
-30.85
-29.75
-26.99
-22.77
-17.51
-11.78
-6.15
-1.07
3.18
6.48
8.86
10.42
11.26
11.48
11.26
10.76
10.21
9.86
9.94
10.53
11.60
12.98
14.38
15.53
16.22
16.35
15.96
15.21
14.31
13.51
12.93
12.57
12.24
11.58
10.34
8.34
5.67
2.65
-0.23
-2.61
-4.27
-5.23
-5.66
-5.75
-5.70
-5.62
-5.57
-5.60
-5.72
-6.03
-6.62
-7.62
-9.16
-11.32
-14.06
-17.18
-20.27
-22.78
-24.16
-23.94
-21.96
-18.31
-13.37
-7.70
-1.98
3.16
7.30
10.21
11.95
12.66
12.58
11.92
10.88
9.69
8.57
7.80
7.55
7.87
8.61
9.50
10.23
10.62
10.62
10.32
9.87
9.39
8.88
8.26
7.40
6.24
4.74
3.01
1.18
-0.58
-2.15
-3.48
-4.58
-5.48
-6.19
-6.71
-7.01
-7.10
-7.02
-6.91
-6.92
-7.23
-7.94
-9.09
-10.54
-12.02
-13.25
-13.90
-13.74
-12.62
-10.55
-7.67
-4.28
-0.77
2.41
4.87
6.38
6.95
6.84
6.39
5.96
5.72
5.69
5.79
5.90
5.98
6.07
6.19
6.32
6.40
6.39
6.29
6.21
6.25
6.48
6.80
7.02
6.89
6.27
5.18
3.75
2.17
0.62
-0.78
-2.05
-3.20
-4.33
-5.50
-6.71
-7.92
-8.99
-9.82
-10.36
-10.69
-10.98
-11.43
-12.12
-12.90
-13.47
-13.45
-12.58
-10.83
-8.45
-5.82
-3.33
-1.30
0.24
1.31
2.10
2.71
3.18
3.47
3.56
3.48
3.31
3.21
3.21
3.28
3.27
3.11
2.78
2.39
2.11
2.01
2.02
1.94
1.57
0.82
-0.14
-1.08
-1.80
-2.25
-2.63
-3.12
-3.88
-4.85
-5.81
-6.57
-7.04
-7.39
-7.82
-8.50
-9.39
-10.31
-10.97
-11.16
-10.80
-9.90
-8.55
-6.79
-4.70
-2.36
0.02
2.21
3.93
4.99
5.33
5.04
4.29
3.28
2.19
1.19
0.40
-0.08
-0.21
-0.03
0.32
0.61
0.68
0.50
0.17
-0.07
-0.04
0.31
0.84
1.21
1.13
0.45
-0.73
-2.07
-3.23
-3.99
-4.37
-4.55
-4.78
-5.14
-5.62
-6.14
-6.63
-7.10
-7.56
-7.94
-8.01
-7.52
-6.30
-4.46
-2.37
-0.50
0.83
1.53
1.79
1.88
1.99
2.12
2.13
1.87
1.32
0.54
-0.28
-0.99
-1.50
-1.86
-2.14
-2.43
-2.79
-3.20
-3.71
-4.35
-5.18
-6.21
-7.38
-8.55
-9.57
-10.43
-11.20
-12.07
-13.12
-14.31
-15.40
-16.08
-16.19
-15.85
-15.52
-15.71
-16.77
-18.57
-20.45
-21.43
-20.54
-17.20
-11.54
-4.34
3.18
9.77
14.63
17.51
18.74
19.07
19.32
20.15
21.81
23.95
25.50
24.87
20.43
11.19
-2.35
-18.03
-32.33
-41.50
-43.01
-36.50
-23.88
-8.57
5.86
16.95
23.75
26.59
26.35
23.82
19.43
13.52
6.68
-0.16
-5.90
-9.85
-12.03
-13.17
-14.39
-16.53
-19.72
-23.37
-26.38
-27.81
-27.32
-25.26
-22.46
-19.90
-18.15
-17.30
-17.04
-16.95
-16.82
-16.71
-16.84
-17.36
-18.20
-19.13
-19.82
-20.05
-19.71
-18.74
-17.07
-14.70
-11.81
-8.88
-6.58
-5.50
-5.79
-7.11
-8.77
-10.13
-10.95
-11.46
-12.12
-13.23
-14.79
-16.38
-17.50
-17.74
-17.00
-15.48
-13.55
-11.67
-10.22
-9.46
-9.47
-10.20
-11.44
-12.95
-14.51
-15.94
-16.99
-17.34
-16.63
-14.64
-11.40
-7.30
-3.02
0.65
3.02
3.70
2.65
0.15
-3.38
-7.43
-11.47
-14.89
-17.05
-17.31
-15.23
-10.76
-4.28
3.45
11.51
19.14
25.83
31.38
35.83
39.23
41.55
42.75
42.79
41.76
39.89
37.46
34.76
32.02
29.33
26.75
24.29
22.02
20.01
18.33
17.05
16.20
15.74
15.63
15.74
15.96
16.16
16.36
16.66
17.30
18.55
20.52
23.13
26.01
28.72
30.82
32.04
32.31
31.74
30.52
28.82
26.86
24.79
22.74
20.83
19.04
17.27
15.41
13.38
11.17
8.89
6.68
4.74
3.24
2.24
1.74
1.58
1.58
1.52
1.32
1.00
0.71
0.53
0.48
0.41
0.12
-0.60
-1.86
-3.61
-5.68
-7.80
-9.64
-10.98
-11.75
-12.01
-11.99
-11.90
-11.85
-11.89
-12.00
-12.16
-12.40
-12.72
-12.99
-13.04
-12.70
-11.92
-10.92
-10.05
-9.60
-9.60
-9.80
-9.83
-9.41
-8.52
-7.27
-5.93
-4.64
-3.37
-2.03
-0.54
1.04
2.48
3.55
4.17
4.38
4.38
4.43
4.71
5.26
6.02
6.84
7.55
8.10
8.36
8.26
7.65
6.32
4.09
0.97
-2.87
-7.01
-10.93
-14.20
-16.57
-17.99
-18.62
-18.59
-18.01
-16.97
-15.54
-13.87
-12.13
-10.50
-9.07
-7.88
-6.90
-6.04
-5.19
-4.22
-2.96
-1.32
0.77
3.26
5.95
8.63
11.04
13.05
14.64
15.96
17.14
18.37
19.67
20.94
22.01
22.73
23.12
23.40
23.85
24.77
26.25
28.12
29.96
31.19
31.20
29.60
26.33
21.71
16.46
11.40
7.22
4.27
2.47
1.28
-0.07
-2.42
-6.48
-12.49
-20.19
-28.72
-36.78
-42.95
-46.09
-45.70
-41.98
-35.74
-28.11
-20.16
-12.75
-6.38
-1.33
2.27
4.46
5.41
5.51
5.28
5.27
5.91
7.40
9.62
12.27
14.99
17.45
19.50
21.13
22.38
23.28
23.76
23.73
23.06
21.69
19.61
16.86
13.59
9.91
5.96
1.80
-2.49
-6.84
-11.15
-15.28
-19.14
-22.65
-25.73
-28.28
-30.24
-31.58
-32.37
-32.81
-33.23
-34.00
-35.32
-37.21
-39.37
-41.31
-42.55
-42.69
-41.56
-39.19
-35.78
-31.60
-26.92
-21.94
-16.76
-11.53
-6.45
-1.87
1.86
4.48
6.03
6.80
7.34
8.15
9.52
11.37
13.34
14.99
15.99
16.34
16.16
15.68
15.05
14.24
13.12
11.56
9.66
7.67
6.00
4.96
4.67
5.02
5.71
6.45
7.02
7.25
6.95
5.85
3.67
0.29
-4.09
-8.97
-13.66
-17.57
-20.44
-22.39
-23.71
-24.69
-25.36
-25.51
-24.87
-23.21
-20.54
-17.02
-12.91
-8.43
-3.81
0.68
4.72
7.89
9.94
10.83
10.89
10.64
10.66
11.37
12.79
14.69
16.66
18.31
19.36
19.70
19.33
18.23
16.48
14.26
11.91
9.86
8.48
7.91
8.01
8.42
8.77
8.94
9.01
9.24
9.79
10.52
11.03
10.76
9.37
6.86
3.64
0.32
-2.57
-4.71
-6.10
-6.86
-7.11
-6.77
-5.62
-3.37
0.13
4.79
10.24
15.91
21.06
24.98
26.99
26.65
23.85
18.93
12.63
5.96
-0.16
-5.11
-8.72
-11.26
-13.25
-15.24
-17.67
-20.65
-23.91
-26.83
-28.51
-28.10
-25.10
-19.64
-12.48
-4.88
1.91
6.98
10.01
11.20
11.01
9.91
8.28
6.33
4.27
2.29
0.59
-0.69
-1.58
-2.22
-2.77
-3.31
-3.74
-3.78
-3.14
-1.64
0.62
3.29
5.90
8.04
9.53
10.39
10.78
10.87
10.74
10.40
9.87
9.16
8.30
7.38
6.45
5.65
5.14
5.05
5.44
6.16
6.87
7.17
6.78
5.65
3.98
2.07
0.21
-1.37
-2.54
-3.26
-3.56
-3.56
-3.46
-3.54
-3.99
-4.83
-5.84
-6.68
-7.01
-6.61
-5.50
-3.79
-1.66
0.76
3.37
6.12
8.96
11.74
14.26
16.28
17.58
18.06
17.76
16.86
15.68
14.48
13.45
12.63
11.90
11.15
10.35
9.59
8.98
8.53
8.14
7.52
6.43
4.79
2.73
0.55
-1.40
-2.92
-4.03
-4.95
-5.97
-7.30
-8.98
-10.78
-12.26
-12.94
-12.45
-10.76
-8.12
-4.99
-1.80
1.15
3.74
5.98
7.82
9.25
10.26
10.97
11.60
12.42
13.55
14.91
16.23
17.19
17.53
17.23
16.42
15.33
14.25
13.40
12.84
12.45
11.95
11.03
9.47
7.32
4.89
2.62
0.89
-0.21
-0.83
-1.39
-2.31
-3.89
-6.24
-9.20
-12.48
-15.55
-17.82
-18.66
-17.62
-14.60
-9.96
-4.51
0.84
5.27
8.43
10.36
11.42
11.94
12.10
11.78
10.71
8.69
5.68
1.89
-2.28
-6.30
-9.70
-12.12
-13.38
-13.48
-12.67
-11.30
-9.79
-8.48
-7.58
-7.10
-6.97
-7.02
-7.17
-7.38
-7.75
-8.41
-9.45
-10.85
-12.46
-14.01
-15.15
-15.53
-14.80
-12.75
-9.39
-5.07
-0.43
3.81
7.08
9.24
10.50
11.31
12.06
12.84
13.51
13.90
13.99
14.03
14.35
15.10
16.10
16.99
17.32
16.92
15.90
14.61
13.40
12.45
11.68
10.84
9.74
8.27
6.46
4.41
2.20
-0.16
-2.61
-5.07
-7.37
-9.23
-10.35
-10.40
-9.17
-6.58
-2.77
1.84
6.60
10.73
13.56
14.68
14.17
12.48
10.24
8.06
6.37
5.40
5.25
5.97
7.53
9.84
12.66
15.55
18.01
19.55
19.89
19.01
17.19
14.79
12.23
9.72
7.31
4.88
2.28
-0.51
-3.41
-6.26
-8.87
-11.11
-12.87
-14.11
-14.73
-14.71
-14.01
-12.64
-10.67
-8.18
-5.29
-2.15
0.97
3.79
6.06
7.68
8.66
9.12
9.15
8.85
8.25
7.40
6.45
5.55
4.93
4.74
5.06
5.75
6.59
7.29
7.53
7.12
6.05
4.49
2.75
1.17
-0.10
-1.10
-1.96
-2.83
-3.70
-4.46
-5.04
-5.44
-5.79
-6.27
-6.97
-7.74
-8.21
-8.00
-6.85
-4.79
-2.14
0.66
3.22
5.28
6.77
7.69
8.09
7.93
7.20
5.90
4.21
2.44
0.96
0.11
0.05
0.70
1.77
2.92
3.81
4.25
4.16
3.55
2.46
0.94
-0.89
-2.83
-4.61
-5.93
-6.56
-6.44
-5.78
-4.91
-4.24
-3.98
-4.09
-4.31
-4.27
-3.71
-2.62
-1.16
0.44
1.97
3.43
4.85
6.24
7.48
8.39
8.77
8.60
8.04
7.29
6.56
5.93
5.33
4.61
3.70
2.62
1.49
0.47
-0.40
-1.16
-1.90
-2.72
-3.61
-4.46
-5.11
-5.44
-5.43
-5.19
-4.96
-4.96
-5.36
-6.18
-7.28
-8.40
-9.21
-9.45
-8.94
-7.76
-6.15
-4.48
-3.05
-2.03
-1.34
-0.78
-0.12
0.78
1.89
3.08
4.18
5.04
5.54
5.65
5.32
4.53
3.35
1.92
0.56
-0.41
-0.75
-0.42
0.38
1.24
1.77
1.73
1.11
0.07
-1.14
-2.36
-3.51
-4.57
-5.52
-6.36
-7.04
-7.57
-8.00
-8.36
-8.63
-8.70
-8.39
-7.60
-6.33
-4.75
-3.09
-1.60
-0.40
0.48
1.11
1.62
2.08
2.59
3.20
3.96
4.87
5.90
6.94
7.77
8.20
8.05
7.29
6.02
4.47
2.91
1.54
0.41
-0.53
-1.41
-2.22
-2.91
-3.34
-3.40
-3.11
-2.68
-2.32
-2.25
-2.54
-3.13
-3.83
-4.43
-4.76
-4.71
-4.28
-3.56
-2.71
-1.88
-1.21
-0.69
-0.26
0.25
0.91
1.75
2.62
3.32
3.66
3.58
3.15
2.55
1.96
1.50
1.21
1.03
0.88
0.66
0.32
-0.13
-0.69
-1.34
-2.09
-2.98
-4.01
-5.09
-6.05
-6.70
-6.90
-6.59
-5.87
-4.87
-3.78
-2.69
-1.62
-0.52
0.65
1.85
2.95
3.75
4.05
3.73
2.83
1.56
0.20
-0.97
-1.77
-2.16
-2.18
-1.90
-1.48
-1.05
-0.81
-0.90
-1.30
-1.81
-2.09
-1.82
-0.87
0.52
1.91
2.77
2.76
1.88
0.41
-1.24
-2.67
-3.57
-3.83
-3.45
-2.57
-1.42
-0.23
0.73
1.22
1.10
0.39
-0.83
-2.39
-4.15
-5.90
-7.43
-8.52
-8.97
-8.72
-7.85
-6.65
-5.41
-4.38
-3.63
-3.02
-2.30
-1.23
0.30
2.17
4.13
5.92
7.38
8.47
9.31
10.04
10.66
11.05
11.03
10.51
9.67
8.90
8.64
9.00
9.64
9.85
8.91
6.61
3.47
0.60
-0.85
-0.23
2.27
5.71
8.87
10.87
11.41
10.79
9.61
8.34
7.08
5.69
3.84
1.31
-1.84
-5.33
-8.77
-11.89
-14.62
-17.14
-19.61
-21.95
-23.76
-24.37
-23.21
-20.12
-15.52
-10.19
-4.93
-0.19
3.98
7.86
11.82
15.99
20.30
24.49
28.25
31.24
33.13
33.57
32.34
29.41
25.03
19.78
14.35
9.37
5.26
2.10
-0.19
-1.78
-2.68
-2.80
-1.98
-0.17
2.55
5.94
9.78
13.93
18.28
22.58
26.35
28.94
29.82
28.92
26.66
23.79
20.89
17.97
14.60
10.18
4.55
-1.83
-7.99
-12.95
-16.18
-17.80
-18.39
-18.61
-18.96
-19.72
-21.16
-23.74
-28.09
-34.82
-44.17
-55.75
-68.46
-80.76
-91.11
-98.57
-103.05
-105.35
-106.73
-108.27
-110.22
-111.75
-111.09
-106.07
-94.94
-76.98
-52.80
-24.34
5.53
33.45
56.36
72.06
79.80
80.37
75.82
68.84
61.91
56.74
54.00
53.52
54.65
56.56
58.34
59.03
57.68
53.49
46.26
36.59
25.90
15.94
8.17
3.24
0.81
-0.08
-0.50
-1.11
-1.98
-2.79
-3.08
-2.45
-0.55
2.92
8.23
15.16
22.83
29.64
33.77
33.98
30.33
24.36
18.42
14.72
14.26
16.48
19.67
21.99
22.32
20.66
17.84
14.85
12.29
10.20
8.32
6.51
4.96
4.08
4.15
4.93
5.70
5.45
3.36
-0.87
-6.89
-13.86
-20.62
-26.08
-29.46
-30.52
-29.61
-27.46
-24.85
-22.28
-19.93
-17.85
-16.27
-15.63
-16.38
-18.50
-21.22
-23.11
-22.72
-19.38
-13.60
-6.96
-1.39
1.67
1.78
-0.57
-4.47
-9.09
-14.00
-18.95
-23.58
-27.21
-29.02
-28.40
-25.39
-20.73
-15.50
-10.77
-7.09
-4.58
-3.01
-2.11
-1.61
-1.19
-0.47
0.95
3.26
6.22
9.08
10.91
11.07
9.58
7.25
5.25
4.59
5.53
7.52
9.35
9.78
8.13
4.55
-0.10
-4.79
-8.81
-12.17
-15.41
-19.18
-23.71
-28.53
-32.61
-34.82
-34.50
-31.58
-26.54
-20.02
-12.54
-4.49
3.61
11.01
16.73
19.97
20.53
19.05
16.72
14.77
13.84
13.72
13.56
12.38
9.62
5.32
0.04
-5.42
-10.40
-14.50
-17.71
-20.20
-22.17
-23.55
-24.00
-23.07
-20.37
-15.95
-10.41
-4.71
0.22
3.84
6.18
7.74
9.06
10.32
11.27
11.33
10.05
7.39
3.84
0.18
-2.92
-5.17
-6.71
-7.90
-9.01
-9.99
-10.52
-10.20
-8.83
-6.56
-3.82
-1.14
1.13
2.86
4.14
5.09
5.79
6.26
6.48
6.51
6.44
6.33
6.18
5.92
5.47
4.79
3.95
3.06
2.27
1.70
1.44
1.62
2.29
3.38
4.68
5.76
6.14
5.47
3.59
0.69
-2.76
-6.13
-8.75
-10.16
-10.16
-8.94
-7.01
-5.05
-3.66
-3.23
-3.77
-4.97
-6.39
-7.64
-8.48
-8.84
-8.76
-8.34
-7.71
-7.02
-6.45
-6.21
-6.43
-7.14
-8.18
-9.21
-9.88
-9.87
-9.03
-7.39
-5.12
-2.47
0.26
2.75
4.70
5.91
6.28
5.98
5.39
5.00
5.17
6.00
7.25
8.47
9.21
9.17
8.35
6.90
5.17
3.43
1.88
0.57
-0.56
-1.62
-2.65
-3.61
-4.33
-4.51
-3.93
-2.50
-0.50
1.49
2.81
2.89
1.62
-0.70
-3.38
-5.68
-7.03
-7.21
-6.43
-5.06
-3.62
-2.53
-2.05
-2.25
-2.87
-3.45
-3.33
-2.01
0.75
4.61
8.76
12.17
13.90
13.46
10.94
7.04
2.77
-0.80
-2.89
-3.26
-2.27
-0.72
0.53
0.82
0.04
-1.46
-3.04
-4.12
-4.39
-3.90
-2.88
-1.57
-0.18
1.12
2.12
2.55
2.18
0.91
-1.05
-3.26
-5.16
-6.26
-6.24
-5.03
-2.80
0.19
3.47
6.49
8.60
9.27
8.19
5.56
1.96
-1.76
-4.71
-6.39
-6.69
-5.94
-4.60
-3.08
-1.50
0.22
2.23
4.64
7.39
10.28
13.09
15.56
17.48
18.69
19.02
18.36
16.78
14.50
11.92
9.49
7.43
5.69
3.87
1.45
-1.95
-6.30
-11.19
-15.88
-19.52
-21.49
-21.42
-19.36
-15.60
-10.71
-5.43
-0.66
2.78
4.30
3.87
2.11
0.10
-1.05
-0.69
0.98
3.03
4.38
4.28
2.84
1.01
-0.02
0.61
2.97
6.38
9.84
12.55
14.13
14.67
14.40
13.44
11.76
9.32
6.28
3.04
0.19
-1.78
-2.73
-2.95
-3.07
-3.69
-5.19
-7.46
-9.95
-11.96
-12.86
-12.39
-10.73
-8.42
-6.10
-4.24
-3.05
-2.40
-1.96
-1.46
-0.82
-0.26
-0.21
-1.15
-3.32
-6.58
-10.43
-14.12
-16.99
-18.67
-19.22
-19.04
-18.65
-18.43
-18.45
-18.44
-17.97
-16.62
-14.13
-10.39
-5.43
0.54
7.03
13.22
18.03
20.54
20.51
18.67
16.49
15.47
16.38
18.75
21.25
22.53
22.09
20.61
19.53
20.09
22.53
25.95
28.80
29.73
28.25
24.83
20.50
16.26
12.59
9.35
6.10
2.49
-1.45
-5.18
-7.95
-9.07
-8.31
-5.99
-2.89
0.17
2.56
4.19
5.56
7.55
11.18
17.18
25.70
36.23
47.70
58.78
68.35
75.79
81.01
84.29
86.07
86.70
86.44
85.63
84.84
84.77
86.08
88.98
93.02
97.19
100.27
101.35
100.23
97.39
93.64
89.57
85.04
79.16
70.51
57.51
38.87
13.92
-17.39
-54.32
-95.33
-138.08
-179.54
-216.62
-246.76
-268.50
-281.69
-287.00
-285.26
-276.73
-261.01
-237.41
-205.84
-167.52
-125.21
-82.83
-44.44
-13.33
8.74
21.56
26.25
24.71
19.11
11.57
3.89
-2.56
-7.03
-9.37
-10.00
-9.68
-9.15
-8.86
-8.77
-8.42
-7.17
-4.37
0.48
7.85
18.31
32.45
50.67
72.64
96.86
120.69
140.91
154.53
159.88
156.95
147.30
133.33
117.35
100.92
84.62
68.20
50.94
32.17
11.58
-10.53
-33.17
-54.77
-73.52
-87.88
-97.02
-101.16
-101.45
-99.49
-96.84
-94.42
-92.40
-90.25
-87.00
-81.60
-73.28
-61.75
-47.49
-31.81
-16.70
-4.26
4.06
8.16
9.40
10.09
12.39
17.18
23.51
29.04
31.15
28.32
20.95
11.26
2.30
-3.24
-4.05
-0.57
5.47
11.73
16.08
17.08
14.15
7.48
-2.09
-13.20
-24.17
-33.16
-38.57
-39.47
-35.92
-29.17
-21.39
-15.03
-12.00
-12.92
-16.88
-21.78
-25.14
-24.96
-20.35
-11.68
-0.25
12.25
24.34
35.06
44.03
51.23
56.75
60.50
62.23
61.60
58.32
52.43
44.40
35.11
25.79
17.83
12.43
10.22
11.01
13.70
16.58
17.90
16.57
12.56
6.90
1.19
-3.03
-4.91
-4.43
-2.27
0.62
3.36
5.35
6.17
5.58
3.58
0.64
-2.14
-3.28
-1.47
3.58
10.75
17.66
21.64
20.89
15.39
6.83
-2.07
-8.79
-11.97
-11.70
-9.11
-5.66
-2.53
-0.44
0.33
-0.32
-2.39
-5.71
-9.87
-14.18
-17.84
-20.20
-21.03
-20.58
-19.43
-18.25
-17.59
-17.72
-18.59
-19.96
-21.37
-22.33
-22.35
-21.07
-18.30
-14.26
-9.56
-5.12
-1.95
-0.78
-1.73
-4.18
-6.87
-8.28
-7.18
-3.14
3.21
10.40
16.60
20.19
20.33
17.13
11.50
4.84
-1.43
-6.14
-8.65
-8.86
-7.23
-4.58
-1.87
0.08
0.83
0.29
-1.28
-3.48
-5.78
-7.71
-8.85
-8.95
-7.95
-6.10
-3.89
-1.92
-0.75
-0.74
-2.02
-4.54
-8.03
-11.86
-14.91
-15.68
-12.78
-5.59
5.08
17.08
27.46
33.71
34.68
31.06
24.88
18.45
13.38
10.09
8.13
6.76
5.62
4.84
4.82
5.73
7.31
8.84
9.61
9.27
8.09
6.76
6.05
6.43
7.78
9.39
10.34
9.77
7.36
3.32
-1.57
-6.31
-9.99
-12.03
-12.32
-11.06
-8.63
-5.33
-1.29
3.45
8.78
14.25
19.18
22.83
24.74
25.00
24.21
23.30
23.17
24.33
26.84
30.41
34.63
39.02
43.09
46.30
47.97
47.45
44.36
38.82
31.57
23.88
17.22
12.88
11.70
13.87
18.93
25.96
33.78
41.32
47.89
53.24
57.46
60.67
62.74
63.29
61.88
58.31
52.71
44.97
34.39
19.26
-2.69
-33.30
-72.77
-119.25
-169.43
-219.68
-267.11
-309.39
-343.95
-367.11
-374.22
-360.93
-325.25
-268.79
-196.71
-116.20
-34.86
40.50
104.15
151.31
178.68
185.40
174.01
150.50
122.75
97.92
80.13
69.49
63.08
56.81
47.77
35.41
21.62
9.58
2.22
0.90
4.85
11.48
17.17
18.54
13.28
0.76
-17.79
-39.52
-60.68
-77.66
-88.10
-91.44
-88.93
-82.85
-75.53
-68.46
-61.98
-55.43
-47.67
-37.59
-24.37
-7.70
11.99
33.46
54.71
73.43
87.72
96.54
99.69
97.40
90.10
78.41
63.63
48.07
34.76
26.47
24.55
28.27
35.07
41.84
46.21
47.46
46.47
44.85
44.00
44.45
45.85
47.33
48.01
47.24
44.79
40.78
35.84
31.06
27.86
27.69
31.58
39.89
52.11
67.04
82.91
97.71
109.45
116.56
118.19
114.48
106.56
96.28
85.84
77.12
71.20
68.08
66.71
65.43
62.59
57.16
49.10
39.33
29.38
20.74
14.37
10.43
8.42
7.53
6.96
6.10
4.51
1.90
-1.84
-6.54
-11.63
-16.28
-19.66
-21.37
-21.73
-21.68
-22.46
-25.03
-29.62
-35.60
-41.74
-46.72
-49.58
-50.05
-48.45
-45.53
-42.14
-39.01
-36.59
-35.13
-34.59
-34.82
-35.45
-36.04
-36.12
-35.38
-33.83
-31.77
-29.72
-28.11
-27.08
-26.46
-25.86
-24.92
-23.50
-21.70
-19.81
-18.16
-16.94
-16.16
-15.73
-15.54
-15.54
-15.80
-16.38
-17.37
-18.70
-20.16
-21.37
-21.93
-21.60
-20.43
-18.77
-17.13
-16.00
-15.58
-15.82
-16.42
-17.04
-17.49
-17.83
-18.39
-19.55
-21.61
-24.52
-27.93
-31.15
-33.36
-33.85
-32.18
-28.25
-22.20
-14.26
-4.71
6.11
17.69
29.30
40.07
49.19
56.15
60.84
63.56
64.74
64.86
64.17
62.90
61.21
59.32
57.38
55.26
52.52
48.43
42.28
33.68
22.87
10.69
-1.59
-12.74
-21.97
-29.01
-34.08
-37.61
-39.94
-41.18
-41.25
-39.90
-36.95
-32.34
-26.19
-18.89
-11.11
-3.73
2.31
6.27
7.84
7.26
5.13
2.16
-1.13
-4.48
-7.77
-10.74
-12.83
-13.42
-12.08
-9.07
-5.33
-2.35
-1.57
-3.76
-8.75
-15.51
-22.54
-28.48
-32.48
-34.25
-33.94
-31.80
-27.96
-22.59
-15.86
-8.07
0.49
9.62
19.36
29.85
41.15
52.89
64.20
73.91
80.85
84.32
84.21
80.90
75.12
67.63
59.22
50.57
42.36
35.09
28.91
23.52
18.26
12.31
5.03
-3.75
-13.66
-23.86
-33.44
-41.70
-48.47
-54.13
-59.51
-65.52
-72.82
-81.50
-91.00
-100.35
-108.42
-114.35
-117.76
-118.69
-117.47
-114.33
-109.33
-102.32
-93.10
-81.63
-68.15
-53.27
-37.91
-23.19
-10.22
0.19
7.84
13.32
17.79
22.36
27.51
32.66
36.42
37.19
34.06
27.33
18.55
9.90
3.42
0.40
0.98
4.09
7.71
9.21
6.18
-2.83
-17.68
-36.66
-56.97
-75.68
-90.60
-100.49
-104.94
-103.83
-97.15
-85.03
-68.11
-47.74
-25.76
-4.04
16.11
34.04
49.55
62.35
71.80
76.87
76.57
70.42
58.85
43.23
25.63
8.28
-6.90
-18.71
-26.66
-30.94
-32.09
-30.81
-27.72
-23.39
-18.36
-13.12
-8.14
-3.77
-0.13
2.83
5.35
7.75
10.29
13.06
15.97
18.77
21.08
22.63
23.29
23.12
22.30
20.98
19.15
16.66
13.32
9.07
4.07
-1.33
-6.73
-11.77
-16.25
-20.04
-23.02
-25.00
-25.80
-25.30
-23.58
-20.93
-17.76
-14.46
-11.22
-8.08
-4.95
-1.78
1.32
4.15
6.43
7.95
8.64
8.58
7.91
6.81
5.44
3.99
2.71
1.91
1.80
2.45
3.59
4.72
5.23
4.62
2.80
0.03
-3.05
-5.79
-7.60
-8.23
-7.67
-6.09
-3.74
-0.80
2.52
5.97
9.25
12.04
14.06
15.12
15.28
14.68
13.62
12.38
11.18
10.08
9.04
7.97
6.75
5.38
3.89
2.39
0.93
-0.51
-1.95
-3.42
-4.88
-6.21
-7.23
-7.82
-7.88
-7.33
-6.13
-4.22
-1.62
1.52
4.90
8.18
10.98
13.09
14.49
15.26
15.54
15.42
14.94
14.16
13.20
12.23
11.44
10.93
10.63
10.38
9.96
9.28
8.36
7.35
6.43
5.72
5.24
4.93
4.69
4.44
4.13
3.74
3.34
3.06
3.14
3.83
5.37
7.86
11.18
14.98
18.57
21.17
22.00
20.53
16.75
11.30
5.22
-0.39
-4.74
-7.70
-9.70
-11.52
-13.81
-16.79
-20.17
-23.33
-25.76
-27.25
-28.02
-28.46
-28.92
-29.53
-30.13
-30.50
-30.47
-29.98
-29.04
-27.58
-25.34
-22.02
-17.42
-11.57
-4.73
2.66
10.19
17.44
23.98
29.28
32.71
33.67
31.79
27.11
20.18
12.08
4.18
-2.09
-5.63
-5.90
-2.98
2.47
9.48
17.06
24.35
30.72
35.68
38.83
39.84
38.66
35.54
31.21
26.71
23.14
21.31
21.58
23.80
27.43
31.57
35.15
37.04
36.38
32.75
26.42
18.33
9.78
1.98
-4.41
-9.41
-13.48
-17.06
-20.31
-22.90
-24.37
-24.38
-22.92
-20.29
-16.88
-13.04
-9.02
-5.05
-1.43
1.49
3.41
4.22
4.02
3.03
1.56
-0.14
-1.81
-3.28
-4.43
-5.25
-5.82
-6.20
-6.32
-5.89
-4.54
-2.00
1.60
5.67
9.29
11.52
11.84
10.42
8.06
6.09
5.92
8.65
14.68
23.49
33.69
43.26
50.09
52.58
50.09
43.15
33.23
22.20
11.81
3.24
-3.00
-7.01
-9.31
-10.64
-11.79
-13.51
-16.30
-20.26
-25.01
-29.76
-33.64
-36.06
-36.90
-36.62
-35.89
-35.42
-35.51
-36.02
-36.38
-35.88
-34.03
-30.70
-26.21
-21.12
-15.99
-11.13
-6.59
-2.36
1.60
5.13
7.99
10.00
11.17
11.64
11.56
11.02
9.99
8.48
6.65
4.84
3.35
2.37
1.81
1.48
1.21
1.12
1.59
3.06
5.83
9.85
14.77
20.07
25.29
30.13
34.48
38.33
41.58
44.04
45.40
45.33
43.63
40.39
35.94
30.81
25.54
20.52
15.90
11.65
7.70
3.93
0.28
-3.40
-7.24
-11.33
-15.63
-19.89
-23.88
-27.48
-30.89
-34.38
-38.13
-41.83
-44.71
-45.84
-44.53
-40.82
-35.41
-29.41
-23.84
-19.25
-15.63
-12.70
-10.11
-7.75
-5.74
-4.22
-3.24
-2.69
-2.34
-2.03
-1.73
-1.48
-1.37
-1.50
-1.78
-2.13
-2.43
-2.61
-2.67
-2.61
-2.39
-2.02
-1.51
-0.89
-0.17
0.76
2.09
4.11
7.13
11.32
16.64
22.80
29.37
35.85
41.70
46.49
49.86
51.59
51.62
50.05
47.13
43.22
38.75
34.19
29.94
26.25
23.11
20.20
17.02
13.05
8.00
1.88
-5.00
-12.15
-19.08
-25.43
-31.00
-35.76
-39.84
-43.52
-47.11
-50.80
-54.37
-57.14
-58.13
-56.53
-52.11
-45.48
-37.97
-31.01
-25.64
-22.05
-19.61
-17.38
-14.49
-10.66
-6.14
-1.59
2.40
5.51
7.80
9.50
10.84
11.78
12.09
11.49
9.83
7.31
4.44
1.95
0.45
0.24
1.18
2.70
4.07
4.67
4.25
3.05
1.70
0.99
1.54
3.63
7.08
11.43
16.10
20.62
24.71
28.37
31.73
35.06
38.54
42.23
46.00
49.52
52.40
54.26
54.83
53.94
51.51
47.45
41.74
34.45
25.90
16.64
7.43
-1.09
-8.52
-14.85
-20.39
-25.59
-30.73
-35.78
-40.31
-43.74
-45.47
-45.12
-42.53
-37.86
-31.44
-23.87
-15.93
-8.49
-2.32
2.22
5.31
7.52
9.57
11.80
14.07
15.80
16.39
15.73
14.55
14.26
16.43
22.06
30.98
41.79
52.16
59.67
62.54
60.14
53.02
42.47
29.94
16.54
3.01
-10.08
-22.00
-31.75
-38.39
-41.56
-41.94
-41.28
-41.88
-45.62
-53.12
-63.48
-74.54
-83.66
-88.62
-88.11
-81.96
-70.96
-56.62
-40.98
-26.27
-14.51
-7.11
-4.50
-6.01
-10.22
-15.45
-20.23
-23.63
-25.19
-24.78
-22.50
-18.78
-14.31
-10.07
-7.00
-5.67
-6.10
-7.73
-9.71
-11.32
-12.20
-12.32
-11.75
-10.21
-6.94
-0.90
8.73
22.00
37.82
54.17
68.65
79.05
84.00
83.25
77.67
69.09
59.99
52.98
50.27
52.84
60.03
69.54
78.11
82.59
80.94
72.82
59.37
42.72
25.16
8.59
-5.61
-16.69
-24.36
-28.87
-30.89
-31.50
-31.94
-33.19
-35.82
-39.67
-44.10
-48.25
-51.38
-53.13
-53.69
-53.67
-53.82
-54.72
-56.50
-58.70
-60.46
-60.69
-58.56
-53.79
-46.73
-38.36
-30.00
-23.03
-18.51
-16.86
-17.79
-20.36
-23.32
-25.46
-25.98
-24.63
-21.58
-17.22
-12.05
-6.48
-0.93
4.24
8.67
12.12
14.22
14.50
12.45
7.68
0.36
-8.67
-17.92
-25.81
-31.35
-34.45
-35.85
-36.66
-37.76
-39.52
-41.55
-42.68
-40.87
-33.36
-17.39
8.60
43.58
83.33
121.03
149.31
162.86
160.45
145.23
123.35
101.50
84.63
74.72
71.14
71.71
74.08
76.67
78.92
80.81
82.36
83.16
82.53
79.78
74.80
68.13
60.69
53.30
46.13
38.51
29.36
17.84
3.97
-11.20
-25.90
-38.46
-47.89
-54.21
-58.15
-60.63
-62.21
-62.93
-62.39
-60.12
-55.96
-50.25
-43.83
-37.83
-33.32
-31.06
-31.15
-33.14
-36.11
-39.10
-41.45
-43.05
-44.20
-45.25
-46.28
-46.92
-46.57
-44.86
-41.91
-38.39
-35.10
-32.54
-30.62
-28.83
-26.67
-24.15
-21.87
-20.76
-21.54
-24.33
-28.56
-33.26
-37.48
-40.62
-42.53
-43.38
-43.36
-42.50
-40.58
-37.20
-32.07
-25.28
-17.43
-9.58
-2.79
2.22
5.40
7.34
9.03
11.32
14.66
19.02
23.93
28.71
32.61
34.92
35.19
33.36
29.86
25.50
21.22
17.75
15.39
14.15
13.82
14.27
15.35
16.86
18.40
19.41
19.36
18.00
15.43
12.13
8.72
5.79
3.78
2.93
3.30
4.71
6.67
8.47
9.29
8.53
5.96
1.85
-3.04
-7.52
-10.22
-9.90
-5.97
1.19
10.11
18.60
24.36
25.78
22.32
14.64
4.05
-7.98
-20.26
-31.92
-42.36
-51.15
-58.09
-63.29
-67.16
-70.18
-72.61
-74.41
-75.23
-74.83
-73.24
-70.83
-67.97
-64.70
-60.60
-55.09
-47.79
-38.92
-29.18
-19.30
-9.71
-0.39
8.80
17.65
25.45
31.21
34.20
34.51
33.13
31.43
30.39
30.15
30.02
29.03
26.56
22.75
18.41
14.61
12.24
11.67
12.74
14.97
17.76
20.62
23.23
25.42
27.14
28.35
28.94
28.71
27.48
25.24
22.29
19.17
16.48
14.55
13.25
12.05
10.40
8.04
5.29
2.87
1.48
1.38
2.25
3.33
3.85
3.42
2.12
0.35
-1.46
-3.03
-4.31
-5.32
-6.18
-7.04
-8.30
-10.54
-14.33
-19.84
-26.52
-33.08
-37.89
-39.67
-38.01
-33.57
-27.79
-22.22
-17.90
-15.09
-13.46
-12.45
-11.70
-11.13
-10.87
-10.99
-11.39
-11.81
-12.02
-11.97
-11.82
-11.74
-11.70
-11.40
-10.32
-7.95
-4.19
0.72
6.17
11.52
16.29
20.35
23.91
27.31
30.92
34.87
38.99
42.84
45.78
47.13
46.41
43.50
38.81
33.18
27.67
23.22
20.37
19.09
18.91
19.07
18.84
17.74
15.66
12.87
9.88
7.24
5.40
4.60
4.82
5.85
7.34
8.88
10.17
11.00
11.44
11.70
12.12
13.11
14.94
17.70
21.21
25.13
29.03
32.47
35.06
36.58
36.91
35.96
33.60
29.63
23.99
16.99
9.54
3.08
-0.82
-1.05
2.55
9.05
16.86
24.36
30.40
34.51
36.61
36.64
34.48
30.14
24.16
17.67
12.17
8.89
8.35
10.08
12.89
15.50
16.88
16.55
14.54
11.14
6.78
1.94
-3.03
-8.07
-13.45
-19.91
-28.46
-40.07
-55.40
-74.48
-96.61
-120.36
-143.84
-164.67
-180.62
-190.41
-194.39
-194.68
-194.13
-194.97
-197.47
-199.71
-198.39
-190.44
-174.22
-149.78
-118.32
-81.24
-40.00
3.50
46.52
85.61
117.41
139.76
152.30
156.10
153.16
145.32
134.44
123.14
114.88
112.86
118.17
128.45
138.17
141.53
134.88
118.71
98.03
80.28
72.50
78.65
98.25
126.89
159.08
189.29
213.60
230.72
241.95
250.07
258.01
267.46
278.55
291.49
305.58
318.93
327.96
327.58
312.41
278.99
227.72
156.20
70.16
-19.69
-101.43
-166.34
-211.39
-238.59
-252.22
-256.51
-254.69
-247.93
-237.53
-225.01
-211.99
-199.70
-188.65
-178.59
-169.16
-160.10
-150.52
-140.25
-129.67
-119.44
-110.16
-102.01
-94.75
-87.97
-81.44
-74.65
-67.52
-60.37
-53.68
-47.83
-42.90
-38.65
-34.75
-31.01
-27.13
-23.10
-19.09
-15.38
-12.15
-9.45
-7.15
-5.07
-3.09
-1.06
0.98
2.98
4.87
6.54
8.04
9.47
10.97
12.75
15.03
17.90
21.45
25.67
30.37
35.27
39.93
43.81
46.39
47.33
46.26
43.03
37.72
30.64
22.31
13.29
4.33
-4.01
-11.19
-16.89
-20.97
-23.49
-24.62
-24.58
-23.69
-22.21
-20.33
-18.24
-15.99
-13.61
-11.18
-8.71
-6.17
-3.55
-0.87
1.88
4.68
7.55
10.38
13.14
15.80
18.41
21.03
23.73
26.63
29.81
33.43
37.26
41.17
45.11
49.10
53.18
57.47
62.08
67.18
72.96
79.11
85.45
91.83
98.24
104.64
111.17
117.82
124.69
131.83
138.58
144.43
149.05
152.17
153.55
152.95
149.62
142.12
133.07
122.91
111.65
99.36
86.17
72.43
58.65
45.26
32.52
20.40
7.94
-5.64
-20.76
-37.38
-55.07
-73.10
-90.77
-107.56
-123.30
-138.58
-154.08
-170.51
-188.51
-208.56
-230.33
-252.39
-271.96
-285.57
-290.36
-284.90
-269.85
-247.78
-222.34
-196.78
-173.26
-152.48
-134.21
-118.11
-103.86
-91.15
-79.39
-67.63
-54.74
-39.99
-23.34
-5.72
11.26
25.85
36.79
43.60
46.62
46.80
45.25
42.96
40.57
38.41
36.52
34.99
34.02
33.98
35.27
38.08
42.36
47.75
53.66
59.50
64.72
68.93
71.87
73.29
73.04
71.02
67.24
61.88
55.27
47.82
40.08
32.68
26.12
20.59
15.96
11.66
6.98
1.24
-6.01
-14.83
-24.93
-35.76
-46.77
-57.39
-67.13
-75.62
-82.56
-87.79
-91.29
-93.15
-93.77
-93.85
-94.30
-96.06
-99.67
-105.03
-111.28
-117.05
-120.79
-121.31
-118.17
-111.90
-103.87
-95.93
-89.76
-86.27
-85.16
-84.99
-83.82
-80.14
-73.57
-65.14
-56.51
-49.15
-43.61
-39.23
-34.47
-27.50
-17.02
-2.87
13.66
30.00
43.04
50.09
49.86
43.17
33.12
24.73
24.11
37.12
67.85
117.30
182.48
256.63
330.49
394.52
441.19
466.49
470.25
455.55
427.69
392.88
356.91
323.70
294.40
267.16
238.27
204.16
163.34
117.45
70.36
26.42
-11.41
-42.26
-66.84
-86.14
-100.42
-109.36
-112.68
-111.23
-107.12
-103.24
-102.14
-105.07
-111.73
-120.34
-128.58
-134.44
-137.05
-136.91
-135.57
-134.88
-136.02
-138.88
-141.86
-142.66
-139.10
-129.98
-115.48
-96.95
-76.69
-57.59
-43.06
-36.34
-39.34
-51.13
-67.50
-82.60
-91.91
-95.48
-98.97
-111.52
-140.90
-189.11
-250.14
-311.73
-360.31
-385.84
-385.09
-361.53
-323.10
-279.14
-237.94
-205.36
-183.98
-173.40
-170.58
-171.19
-171.27
-168.46
-162.20
-153.01
-141.43
-127.08
-108.98
-86.41
-59.79
-30.90
-2.22
24.06
46.97
66.70
84.24
100.27
114.73
126.82
135.51
140.35
141.74
140.93
139.40
138.41
138.24
138.39
137.91
135.90
132.10
126.98
121.46
116.51
112.96
111.08
110.48
110.17
108.49
103.67
94.62
81.43
65.62
49.68
36.20
26.82
21.77
19.84
19.10
17.82
14.96
10.51
5.22
0.24
-3.26
-4.61
-3.89
-1.91
-0.18
-0.34
-3.68
-10.55
-20.35
-31.52
-42.14
-50.51
-55.49
-56.69
-54.38
-49.22
-42.07
-33.75
-24.85
-15.55
-5.75
4.88
16.33
27.96
38.47
46.23
50.03
49.66
46.21
41.60
37.70
35.40
34.44
33.62
31.73
28.49
24.70
21.95
21.72
24.56
29.61
35.00
38.61
38.91
35.55
29.19
20.96
12.08
3.41
-4.29
-10.33
-14.06
-15.32
-14.63
-13.26
-12.84
-14.40
-17.90
-22.17
-25.60
-26.92
-25.96
-23.52
-20.79
-18.68
-17.44
-16.90
-17.03
-18.08
-20.69
-25.40
-32.46
-41.50
-51.86
-62.69
-73.18
-82.58
-90.11
-95.10
-97.20
-96.59
-93.89
-89.91
-85.17
-79.73
-73.20
-65.12
-55.31
-44.02
-31.78
-19.09
-6.31
6.39
18.74
30.26
40.29
48.19
53.78
57.52
60.34
63.35
67.31
72.52
78.62
84.96
90.75
95.45
98.80
100.78
101.43
100.84
99.16
96.46
92.93
88.84
84.55
80.40
76.69
73.49
70.70
68.11
65.32
61.97
57.61
51.96
44.91
36.72
27.97
19.37
11.57
4.94
-0.52
-5.07
-9.10
-12.96
-17.00
-21.36
-26.18
-31.31
-36.35
-40.46
-42.60
-41.87
-37.89
-30.99
-22.04
-12.37
-3.05
5.15
11.95
17.38
21.57
24.60
26.55
27.50
27.60
27.21
26.62
26.17
26.10
26.52
27.28
28.19
28.88
28.97
28.23
26.62
24.24
21.32
18.03
14.40
10.44
6.14
1.58
-3.02
-7.39
-11.45
-15.23
-18.99
-22.92
-26.95
-30.60
-33.08
-33.53
-31.33
-26.33
-18.95
-10.00
-0.46
8.76
17.03
24.02
29.67
34.04
37.21
39.29
40.44
40.89
40.97
40.87
40.78
40.71
40.49
39.90
38.77
37.17
35.32
33.55
32.02
30.67
29.16
27.10
24.15
20.31
15.94
11.57
7.73
4.68
2.29
0.21
-2.03
-4.87
-8.57
-13.12
-18.30
-23.54
-28.07
-30.95
-31.35
-28.82
-23.33
-15.48
-6.21
3.40
12.41
20.22
26.60
31.58
35.36
38.15
40.16
41.52
42.34
42.82
43.16
43.60
44.31
45.36
46.67
47.99
49.06
49.58
49.36
48.25
46.14
43.06
39.11
34.55
29.74
25.05
20.76
16.94
13.44
10.09
6.76
3.52
0.51
-2.10
-4.33
-6.37
-8.54
-11.18
-14.44
-18.24
-22.21
-25.72
-28.02
-28.43
-26.54
-22.30
-16.12
-8.73
-0.99
6.39
12.93
18.45
22.85
26.20
28.53
29.92
30.48
30.42
30.05
29.71
29.71
30.24
31.29
32.72
34.13
35.19
35.64
35.47
34.82
34.04
33.35
32.81
32.25
31.40
30.14
28.50
26.69
24.93
23.34
21.80
20.11
18.10
15.74
13.26
10.95
9.12
7.95
7.39
7.21
7.07
6.74
5.98
4.81
3.35
1.83
0.72
0.51
1.67
4.50
9.04
14.96
21.73
28.66
35.01
40.26
44.22
47.14
49.65
52.52
56.22
60.82
65.77
70.29
73.71
75.78
76.79
77.14
76.96
76.01
73.80
70.20
65.76
61.96
60.42
62.37
67.88
75.86
84.59
92.38
98.27
102.01
103.86
103.92
102.07
98.28
93.05
87.71
83.93
82.78
83.82
85.19
84.43
79.98
71.92
61.89
51.89
42.99
34.75
25.78
14.90
2.14
-11.15
-23.32
-33.47
-41.88
-49.82
-58.43
-67.86
-77.02
-84.15
-87.61
-86.83
-82.60
-76.64
-70.92
-66.83
-64.89
-64.67
-65.51
-66.78
-68.20
-69.84
-71.76
-73.91
-75.88
-77.16
-77.17
-75.59
-72.36
-67.78
-62.38
-56.76
-51.57
-47.20
-43.80
-41.23
-39.19
-37.36
-35.51
-33.53
-31.19
-28.28
-24.55
-19.87
-14.34
-8.36
-2.50
2.76
7.15
10.89
14.53
18.71
23.89
29.97
36.43
42.40
47.12
50.13
51.35
51.02
49.44
46.84
43.35
39.15
34.52
29.83
25.40
21.44
17.92
14.69
11.60
8.50
5.23
1.62
-2.53
-7.46
-13.18
-19.47
-25.97
-32.16
-37.81
-42.92
-47.81
-52.88
-58.42
-64.35
-70.28
-75.74
-80.24
-83.69
-86.21
-88.09
-89.55
-90.69
-91.46
-91.81
-91.79
-91.46
-90.84
-89.82
-88.00
-85.00
-80.45
-74.43
-67.40
-60.31
-54.15
-49.82
-47.76
-47.75
-49.27
-51.54
-53.95
-56.09
-57.88
-59.31
-60.56
-61.76
-62.98
-64.27
-65.55
-66.65
-67.25
-67.05
-65.91
-63.97
-61.61
-59.26
-57.23
-55.63
-54.35
-53.22
-52.14
-51.27
-51.13
-52.62
-56.80
-64.61
-76.35
-91.46
-108.66
-126.35
-143.10
-158.13
-171.24
-182.14
-190.10
-193.63
-190.97
-180.76
-162.77
-138.01
-108.45
-76.39
-43.84
-12.32
17.16
43.90
67.46
87.55
104.28
118.00
129.07
137.70
143.79
147.03
147.01
143.32
135.79
124.57
110.33
94.16
77.55
61.97
48.65
38.40
31.38
27.44
26.29
27.88
32.18
39.10
47.98
57.56
66.26
72.56
75.58
75.14
71.70
66.08
59.21
51.98
45.17
39.49
35.36
32.85
31.50
30.41
28.54
25.02
19.47
12.06
3.57
-4.96
-12.55
-18.52
-22.86
-25.94
-28.37
-30.48
-32.19
-32.94
-32.00
-28.95
-23.83
-17.22
-9.94
-2.80
3.65
9.03
13.12
15.67
16.42
15.17
12.10
7.64
2.53
-2.31
-6.12
-8.32
-8.79
-7.71
-5.56
-3.04
-1.00
-0.18
-1.12
-3.97
-8.41
-13.76
-19.13
-23.64
-26.60
-27.67
-26.62
-23.48
-18.31
-11.27
-2.64
7.24
17.90
28.67
38.76
47.36
53.62
56.88
56.91
53.95
48.78
42.58
36.55
31.74
28.74
27.45
27.17
26.96
25.88
23.49
20.11
16.67
14.47
14.67
17.79
23.47
30.54
37.22
41.65
42.11
37.33
26.81
10.91
-9.01
-30.66
-51.39
-68.85
-81.62
-89.70
-94.42
-97.61
-100.97
-105.31
-110.39
-115.30
-118.90
-120.23
-118.78
-114.42
-107.25
-97.67
-86.38
-74.33
-62.63
-52.20
-43.49
-36.39
-30.36
-24.65
-18.77
-12.54
-6.14
0.09
5.91
11.29
16.24
20.87
25.07
28.60
31.17
32.67
33.21
33.11
32.80
32.48
32.17
31.79
31.40
31.38
32.48
35.52
41.07
49.30
59.92
72.49
86.44
101.10
115.39
127.73
136.36
139.96
138.33
132.68
125.09
117.38
110.08
102.11
91.22
75.43
54.19
29.00
2.88
-20.87
-39.88
-53.36
-61.96
-67.00
-69.83
-71.30
-71.77
-71.46
-70.66
-69.86
-69.44
-69.48
-69.42
-68.27
-64.92
-58.52
-48.87
-36.51
-22.61
-8.64
4.05
14.61
22.89
29.37
34.95
40.38
45.90
51.12
55.09
56.89
56.01
52.69
47.81
42.64
38.35
35.72
35.11
36.52
39.63
43.80
48.22
51.89
53.82
53.16
49.53
43.01
34.04
23.25
11.16
-1.94
-15.91
-30.58
-45.70
-60.71
-75.13
-88.56
-100.82
-111.86
-121.53
-129.49
-135.19
-138.20
-138.31
-135.92
-131.79
-126.97
-122.29
-118.25
-114.95
-112.07
-108.99
-104.86
-98.81
-90.06
-78.34
-64.00
-48.08
-32.05
-17.47
-5.43
3.84
10.82
16.55
22.18
28.37
35.35
42.89
50.56
58.03
65.14
71.77
77.70
82.49
85.58
86.54
85.33
82.58
79.39
77.03
76.42
77.73
80.29
82.71
83.57
81.70
76.92
69.99
62.50
56.32
53.08
53.48
56.99
62.09
66.59
68.48
66.56
60.66
51.51
40.31
28.19
16.01
4.43
-5.92
-14.23
-19.74
-22.08
-21.60
-19.34
-16.74
-15.12
-15.21
-17.06
-20.12
-23.75
-27.51
-31.33
-35.45
-40.22
-45.89
-52.39
-59.36
-66.19
-72.37
-77.57
-81.88
-85.59
-89.02
-92.20
-94.54
-95.06
-92.64
-86.57
-76.85
-64.32
-50.42
-36.71
-24.54
-14.56
-6.85
-0.90
4.05
8.68
13.47
18.53
23.77
28.86
33.52
37.44
40.45
42.50
43.62
43.97
43.77
43.41
43.14
43.07
43.01
42.60
41.49
39.40
36.40
32.82
29.13
25.75
22.97
20.74
18.80
16.80
14.30
11.07
7.07
2.42
-2.54
-7.40
-11.72
-15.09
-17.08
-17.47
-16.05
-12.89
-8.30
-2.74
3.16
8.78
13.61
17.50
20.43
22.64
24.41
25.88
27.13
28.03
28.50
28.48
28.11
27.49
26.79
26.07
25.30
24.37
23.07
21.16
18.39
14.48
9.12
2.17
-6.24
-15.58
-24.78
-32.70
-38.33
-41.24
-41.84
-41.18
-40.42
-40.36
-41.08
-41.83
-41.59
-39.64
-35.91
-31.06
-26.01
-21.45
-17.47
-13.56
-9.11
-3.84
2.04
7.84
12.82
16.58
19.09
20.61
21.41
21.71
21.60
21.41
21.60
22.66
24.88
28.13
31.88
35.56
39.02
42.42
46.01
49.69
52.75
54.45
54.40
52.92
50.75
48.30
45.10
39.77
30.93
18.32
3.35
-11.40
-23.43
-31.57
-36.28
-38.97
-40.79
-41.63
-40.27
-35.15
-25.80
-13.38
-0.33
10.49
17.19
19.43
18.36
15.82
13.38
11.65
10.29
8.61
6.14
3.15
0.45
-1.18
-1.72
-2.00
-3.22
-6.21
-10.61
-14.99
-17.26
-15.74
-9.88
-0.67
9.89
19.53
26.36
29.53
29.04
25.81
21.27
17.10
14.72
15.03
17.98
22.51
27.08
30.09
30.57
28.37
24.17
19.07
14.37
11.10
9.71
9.94
10.62
9.99
6.31
-1.36
-12.54
-25.24
-36.73
-44.64
-47.78
-46.60
-42.61
-37.59
-32.76
-28.45
-24.24
-19.58
-14.22
-8.53
-3.49
-0.14
0.97
0.07
-1.80
-3.17
-2.83
-0.32
3.98
8.97
13.46
16.51
17.59
16.53
13.53
9.26
4.93
2.23
2.67
6.96
14.35
22.84
29.79
33.17
32.42
28.60
23.90
20.37
19.19
20.20
22.36
24.37
25.42
25.34
24.58
23.79
23.31
23.18
23.10
22.71
21.89
20.79
19.72
18.95
18.59
18.36
18.02
17.46
16.80
16.13
15.36
13.97
11.17
6.50
0.09
-7.05
-13.39
-17.62
-19.17
-18.54
-16.96
-15.82
-15.99
-17.60
-20.11
-22.73
-24.83
-25.92
-25.74
-24.12
-20.96
-16.30
-10.54
-4.47
0.82
4.29
5.36
4.10
1.25
-2.17
-5.02
-6.45
-6.03
-3.78
-0.21
3.86
7.41
9.64
10.17
9.26
7.63
6.19
5.69
6.45
8.33
10.84
13.43
15.44
16.18
15.00
11.54
5.98
-0.79
-7.42
-12.56
-15.39
-15.92
-14.83
-13.00
-11.21
-9.70
-8.36
-7.06
-5.86
-5.00
-4.74
-5.04
-5.39
-5.14
-3.69
-0.92
2.71
6.40
9.34
11.12
11.84
12.05
12.31
13.04
14.36
16.13
18.10
20.04
21.79
23.23
24.25
24.60
24.13
22.73
20.67
18.45
16.79
16.25
16.90
18.28
19.34
18.88
15.87
10.02
1.85
-7.50
-16.74
-24.91
-31.50
-36.62
-40.60
-43.97
-47.11
-50.23
-53.55
-57.13
-60.94
-64.51
-67.18
-68.12
-66.78
-63.18
-58.11
-52.80
-48.44
-45.71
-44.31
-43.26
-41.35
-37.79
-32.70
-27.07
-22.34
-19.72
-19.93
-22.71
-27.23
-32.34
-36.88
-40.08
-41.56
-41.41
-39.96
-37.75
-35.29
-32.92
-30.83
-28.98
-27.30
-25.60
-23.74
-21.55
-18.89
-15.83
-12.69
-10.17
-9.02
-9.84
-12.53
-16.30
-19.84
-21.86
-21.69
-19.48
-16.15
-12.97
-11.01
-10.74
-12.02
-14.29
-16.79
-18.91
-20.12
-20.15
-18.97
-16.71
-13.69
-10.34
-7.14
-4.36
-2.14
-0.29
1.48
3.31
5.22
6.92
8.01
8.13
7.21
5.40
3.25
1.30
0.02
-0.32
0.21
1.27
2.54
3.64
4.41
4.90
5.24
5.54
5.85
6.09
6.09
5.87
5.48
5.13
5.12
5.59
6.43
7.39
8.09
8.25
7.83
6.97
5.86
4.76
3.75
2.82
1.91
0.93
-0.14
-1.26
-2.44
-3.78
-5.36
-7.23
-9.22
-11.04
-12.30
-12.74
-12.27
-11.07
-9.55
-8.07
-6.91
-6.13
-5.72
-5.62
-5.90
-6.60
-7.66
-8.96
-10.22
-11.13
-11.39
-10.85
-9.51
-7.60
-5.48
-3.48
-1.81
-0.43
0.85
2.21
3.67
5.09
6.07
6.17
5.19
3.17
0.43
-2.68
-5.86
-8.90
-11.66
-14.01
-15.88
-17.17
-17.99
-18.55
-19.05
-19.68
-20.33
-20.67
-20.22
-18.60
-15.57
-11.31
-6.28
-1.07
3.73
7.61
10.38
12.03
12.78
12.86
12.43
11.55
10.20
8.30
5.80
2.83
-0.40
-3.51
-6.16
-8.02
-8.86
-8.59
-7.33
-5.33
-3.01
-0.91
0.50
0.95
0.45
-0.64
-1.84
-2.72
-2.98
-2.53
-1.49
-0.08
1.45
2.80
3.90
4.66
5.20
5.75
6.72
8.47
11.16
14.66
18.36
21.58
23.57
24.00
23.01
21.05
18.64
16.21
13.95
12.02
10.61
9.91
10.06
10.97
12.31
13.66
14.82
15.90
17.24
19.08
21.35
23.52
24.86
24.70
22.80
19.39
15.03
10.37
5.96
2.20
-0.65
-2.41
-3.07
-2.70
-1.54
0.03
1.62
3.07
4.54
6.47
9.43
13.73
19.27
25.47
31.35
35.99
38.70
39.41
38.55
36.87
35.10
33.55
32.19
30.68
28.70
26.25
23.76
21.98
21.63
23.03
26.03
30.00
34.22
38.09
41.27
43.67
45.36
46.61
47.88
49.89
53.40
58.74
65.56
72.62
78.12
80.33
78.39
72.84
65.45
58.57
54.04
52.50
53.24
54.63
54.95
53.24
49.52
44.42
38.72
32.71
26.23
18.94
10.80
2.20
-6.24
-14.08
-21.48
-28.99
-37.30
-46.58
-56.28
-65.36
-72.71
-77.75
-80.75
-82.59
-84.42
-87.19
-91.27
-96.38
-101.77
-106.37
-109.27
-109.97
-108.54
-105.54
-101.88
-98.42
-95.68
-93.85
-92.72
-91.88
-90.97
-89.64
-87.66
-84.83
-81.16
-76.89
-72.57
-68.78
-65.78
-63.25
-60.12
-55.16
-47.65
-37.90
-27.32
-17.70
-10.24
-4.89
-0.47
4.76
11.91
21.09
31.39
41.61
50.78
58.51
64.79
69.42
72.07
72.23
69.78
65.17
59.28
53.13
47.27
41.75
36.12
29.87
22.71
14.71
6.43
-1.42
-8.04
-12.85
-15.51
-16.11
-15.04
-12.83
-9.96
-6.60
-2.66
2.08
7.68
13.85
19.98
25.34
29.46
32.15
33.74
34.72
35.60
36.73
38.21
40.08
42.15
44.16
45.65
46.08
45.00
42.20
38.06
33.43
29.43
26.97
26.54
27.95
30.58
33.59
36.31
38.40
39.88
41.11
42.55
44.82
48.50
53.94
61.14
69.75
79.16
88.65
97.83
106.63
115.17
123.52
131.37
138.26
143.80
148.10
151.88
156.51
163.60
174.40
189.21
206.87
224.63
238.33
243.32
235.72
213.76
178.48
133.25
82.67
30.88
-19.48
-67.74
-114.55
-160.96
-207.39
-253.14
-296.25
-333.77
-362.36
-379.05
-382.00
-371.22
-348.69
-317.83
-282.74
-247.16
-213.70
-183.65
-157.26
-134.18
-113.89
-95.99
-80.11
-65.88
-52.92
-40.93
-29.79
-19.71
-11.10
-4.20
1.11
5.49
9.98
15.51
22.42
30.27
37.99
44.35
48.63
50.86
51.85
52.67
54.15
56.49
59.19
61.43
62.49
62.05
60.17
57.14
53.35
49.12
44.82
40.91
37.94
36.55
37.18
39.88
44.14
49.14
53.83
57.30
59.00
58.83
57.11
54.31
50.88
47.09
43.19
39.42
36.05
33.27
31.23
29.88
29.02
28.41
27.85
27.15
26.15
24.69
22.78
20.60
18.59
17.38
17.45
18.91
21.21
23.38
24.31
23.22
19.82
14.24
6.99
-1.29
-9.87
-18.19
-25.68
-32.00
-37.01
-40.76
-43.54
-45.56
-47.00
-48.00
-48.83
-49.77
-51.18
-53.34
-56.19
-59.51
-63.02
-66.40
-69.44
-71.77
-72.92
-72.35
-69.69
-65.14
-59.62
-54.42
-50.87
-49.76
-50.94
-53.59
-56.50
-58.69
-59.65
-59.43
-58.37
-56.64
-54.30
-51.13
-46.87
-41.39
-34.74
-27.05
-18.47
-9.05
1.20
12.13
23.33
34.19
43.86
51.51
56.43
58.28
57.05
53.10
47.05
39.64
31.49
22.81
13.49
3.19
-8.29
-20.60
-32.76
-43.27
-50.64
-53.89
-53.07
-49.13
-43.58
-37.96
-33.48
-30.78
-29.88
-30.37
-31.58
-32.75
-33.22
-32.76
-31.68
-30.80
-31.26
-33.98
-39.40
-47.36
-57.17
-67.77
-77.74
-85.34
-88.33
-84.33
-71.24
-48.08
-15.51
24.05
67.01
109.55
148.55
182.03
209.15
229.68
243.70
251.45
253.54
251.00
245.53
238.93
232.73
227.69
223.87
220.78
217.75
214.37
210.33
205.52
199.70
192.59
183.89
173.52
161.64
148.59
134.86
120.80
106.76
92.83
79.03
65.32
51.59
37.71
23.73
9.92
-3.22
-14.99
-24.75
-32.06
-36.80
-39.23
-39.84
-39.15
-37.59
-35.60
-33.47
-31.53
-30.12
-29.51
-29.93
-31.41
-33.85
-37.05
-40.83
-45.04
-49.57
-54.35
-59.21
-63.89
-67.98
-70.99
-72.49
-72.12
-69.75
-65.49
-59.64
-52.66
-45.04
-37.29
-29.80
-22.92
-16.81
-11.49
-6.90
-2.84
0.75
3.95
6.63
8.63
9.72
9.81
8.81
6.80
3.99
0.66
-2.91
-6.52
-10.25
-14.27
-18.75
-23.71
-28.76
-33.33
-36.88
-39.22
-40.65
-41.97
-44.03
-47.42
-52.40
-58.94
-66.97
-76.59
-88.01
-101.38
-116.83
-134.12
-152.74
-171.82
-190.21
-206.74
-220.39
-230.48
-236.68
-238.94
-237.25
-231.53
-221.85
-208.42
-191.94
-173.41
-153.83
-133.84
-113.57
-92.88
-71.68
-50.37
-29.64
-10.37
6.65
21.03
32.72
41.87
48.64
53.13
55.39
55.70
54.54
52.45
49.93
47.24
44.41
41.28
37.78
33.88
29.83
25.82
22.12
18.96
16.57
15.16
14.78
15.33
16.40
17.61
18.47
18.73
18.29
17.27
15.84
14.16
12.47
10.93
9.79
9.24
9.32
9.95
10.85
11.62
11.89
11.46
10.14
7.92
4.95
1.44
-2.31
-5.96
-9.10
-11.46
-12.82
-13.28
-13.06
-12.32
-11.32
-10.18
-9.06
-7.99
-7.07
-6.22
-5.39
-4.42
-3.06
-1.31
0.87
3.31
5.77
7.99
9.71
10.68
10.73
9.87
8.11
5.67
2.81
-0.26
-3.29
-6.04
-8.29
-9.86
-10.68
-10.82
-10.50
-9.96
-9.55
-9.36
-9.34
-9.33
-9.01
-8.14
-6.50
-4.05
-0.90
2.65
6.17
9.24
11.48
12.64
12.62
11.53
9.48
6.72
3.54
0.53
-1.47
-1.62
0.80
5.89
13.34
22.19
31.36
39.71
46.19
49.96
50.32
47.11
40.73
32.48
24.12
17.52
14.00
13.98
17.13
22.55
29.36
36.91
44.91
53.27
61.90
70.57
78.78
85.99
91.55
94.87
95.39
92.67
86.54
77.19
65.22
51.51
37.21
23.39
10.96
0.42
-8.06
-14.59
-19.45
-23.02
-25.72
-27.81
-29.49
-30.72
-31.49
-31.76
-31.60
-31.16
-30.70
-30.43
-30.49
-30.86
-31.35
-31.70
-31.62
-30.89
-29.55
-27.78
-25.95
-24.44
-23.54
-23.28
-23.50
-23.84
-23.86
-23.29
-21.99
-20.11
-17.94
-15.88
-14.24
-13.17
-12.62
-12.44
-12.50
-12.64
-12.86
-13.09
-13.23
-12.94
-11.80
-9.47
-5.85
-1.27
3.75
8.47
12.24
14.64
15.55
15.14
13.94
12.80
12.68
14.75
19.70
27.69
38.19
50.04
61.77
72.09
80.01
85.06
87.24
86.83
84.30
80.13
74.70
68.41
61.60
54.58
47.51
40.45
33.32
25.97
18.25
10.00
1.11
-8.64
-19.39
-31.34
-44.57
-58.89
-73.81
-88.78
-103.29
-116.87
-129.21
-140.01
-148.96
-155.78
-160.34
-162.70
-163.04
-161.67
-158.81
-154.66
-149.40
-143.30
-136.69
-129.97
-123.35
-116.86
-110.39
-103.79
-97.09
-90.63
-84.98
-80.91
-78.94
-79.13
-81.07
-83.86
-86.44
-88.05
-88.26
-87.13
-85.11
-82.71
-80.36
-78.37
-76.80
-75.45
-74.12
-72.38
-69.77
-65.88
-60.46
-53.58
-45.60
-37.06
-28.46
-20.30
-12.78
-5.98
0.08
5.38
9.91
13.64
16.71
19.46
22.19
25.27
28.89
32.96
37.09
40.82
43.63
45.33
46.06
46.22
46.31
46.66
47.28
47.93
48.32
48.22
47.64
46.67
45.51
44.22
42.72
40.86
38.44
35.35
31.50
26.87
21.40
15.19
8.33
1.00
-6.69
-14.65
-22.72
-30.57
-37.65
-43.17
-46.36
-46.72
-44.17
-39.08
-32.08
-23.76
-14.65
-5.19
4.22
13.20
21.58
29.54
37.55
46.08
55.18
64.32
72.47
78.73
82.87
85.76
89.15
94.99
104.47
117.54
132.88
148.46
162.36
173.49
181.88
188.49
194.68
201.62
209.88
219.23
228.88
237.66
244.29
247.69
247.51
244.46
240.61
239.02
242.63
252.79
267.97
283.66
293.49
291.59
274.77
243.67
202.18
155.79
109.65
67.29
30.67
0.75
-21.79
-36.41
-43.10
-43.01
-38.69
-33.83
-32.41
-37.68
-51.10
-71.76
-96.29
-119.79
-137.29
-145.44
-143.58
-133.72
-119.33
-103.99
-90.10
-78.63
-69.71
-63.24
-59.40
-58.60
-61.02
-66.09
-72.58
-79.00
-83.94
-86.71
-87.21
-85.93
-83.53
-80.53
-77.02
-72.77
-67.24
-60.06
-51.24
-41.19
-30.74
-20.73
-11.82
-4.25
1.98
7.05
11.13
14.05
15.38
14.44
10.58
3.55
-6.27
-17.68
-28.77
-37.24
-40.83
-37.93
-28.09
-12.19
7.74
28.95
48.75
64.92
76.09
81.70
81.73
76.55
66.64
52.67
35.45
15.83
-5.39
-27.62
-50.59
-74.28
-98.80
-124.20
-150.24
-176.57
-202.71
-228.10
-252.32
-274.93
-295.65
-314.34
-331.02
-345.80
-358.65
-369.34
-377.04
-380.42
-377.59
-366.39
-344.98
-312.50
-269.73
-219.17
-164.61
-109.87
-57.54
-7.91
41.11
92.72
149.67
213.00
281.96
354.65
428.62
500.58
565.72
617.07
646.22
645.45
610.42
542.00
445.78
329.63
200.57
63.25
-79.03
-221.80
-357.38
-475.09
-564.18
-617.84
-635.85
-624.56
-593.67
-552.40
-506.57
-458.08
-406.42
-351.21
-293.62
-236.11
-181.39
-130.84
-84.05
-39.34
5.20
50.69
97.01
143.27
188.70
232.95
275.98
317.04
353.87
382.70
399.16
399.68
382.85
349.74
303.21
246.94
184.69
120.08
56.96
-0.80
-49.90
-88.60
-117.03
-136.66
-148.73
-153.00
-147.54
-129.58
-97.23
-50.82
6.81
71.30
138.04
203.49
265.65
323.55
376.70
424.05
463.99
494.48
513.68
520.42
514.39
495.70
464.38
420.39
363.86
296.29
221.21
143.88
69.52
0.95
-63.27
-128.38
-200.46
-282.48
-371.36
-457.95
-530.12
-577.38
-594.62
-583.18
-549.03
-499.63
-441.76
-381.02
-322.61
-271.75
-232.65
-206.62
-190.43
-176.81
-157.13
-125.22
-80.19
-26.70
27.47
74.86
111.23
136.27
152.46
163.35
172.24
181.90
194.41
210.92
231.11
253.07
273.74
289.98
299.82
303.22
301.78
297.56
291.87
284.46
273.71
257.44
233.72
201.51
160.91
113.15
60.35
5.24
-49.31
-100.49
-145.49
-181.46
-205.48
-215.25
-209.70
-189.76
-158.42
-120.07
-79.34
-39.79
-3.04
31.14
64.10
96.82
128.79
157.51
179.20
190.25
188.90
175.90
154.03
126.88
97.32
67.09
37.28
9.35
-14.61
-32.12
-41.66
-43.84
-41.63
-39.29
-40.47
-46.49
-55.90
-65.33
-71.15
-70.99
-64.50
-53.04
-38.50
-22.32
-4.92
13.71
33.09
51.65
67.08
77.32
81.94
82.45
81.33
80.41
79.27
75.22
64.69
45.52
18.72
-11.31
-38.65
-58.61
-69.72
-74.29
-76.86
-81.92
-92.13
-107.51
-125.92
-144.17
-159.08
-168.05
-169.38
-162.44
-147.84
-127.45
-104.07
-80.85
-60.58
-45.02
-34.41
-27.51
-21.93
-15.01
-4.64
9.85
27.13
44.08
56.90
62.67
60.46
51.81
39.92
28.15
18.91
12.85
9.22
6.65
4.02
0.64
-3.80
-9.66
-17.52
-27.96
-41.38
-57.79
-76.97
-98.69
-123.05
-150.14
-179.60
-210.12
-239.31
-264.34
-282.89
-294.18
-299.21
-300.17
-299.26
-297.66
-295.50
-292.34
-288.28
-284.18
-281.15
-279.42
-277.35
-271.46
-257.64
-233.04
-197.18
-152.14
-101.20
-47.30
8.04
64.31
120.85
175.62
225.01
264.93
292.45
307.02
310.64
306.61
297.94
286.39
272.68
257.66
243.47
233.31
230.10
234.55
243.89
252.48
253.73
242.75
217.93
181.31
137.38
91.28
47.47
8.97
-22.54
-46.57
-63.40
-73.96
-79.29
-80.16
-76.96
-69.95
-59.83
-48.07
-36.68
-27.47
-21.19
-17.12
-13.53
-8.74
-2.10
5.69
12.98
18.15
20.43
20.08
17.97
14.97
11.39
7.05
1.46
-5.58
-13.72
-22.04
-29.24
-34.05
-35.54
-33.49
-28.34
-21.23
-13.47
-6.05
0.70
7.16
14.06
21.92
30.62
39.31
46.59
51.11
52.07
49.56
44.57
38.67
33.54
30.47
29.99
31.72
34.61
37.29
38.69
38.46
37.08
35.56
34.88
35.53
37.32
39.62
41.68
43.14
44.14
45.17
46.69
48.77
51.03
52.85
53.79
53.85
53.47
53.26
53.66
54.63
55.70
56.13
55.25
52.82
48.94
44.01
38.56
32.98
27.53
22.35
17.52
13.19
9.54
6.85
5.20
4.47
4.34
4.30
3.89
2.83
0.93
-1.94
-5.90
-11.09
-17.46
-24.57
-31.57
-37.39
-41.14
-42.53
-42.05
-40.72
-39.56
-39.10
-39.20
-39.14
-38.08
-35.48
-31.40
-26.49
-21.76
-17.99
-15.49
-13.92
-12.63
-10.94
-8.65
-6.03
-3.63
-1.96
-1.07
-0.59
-0.06
0.74
1.60
1.89
1.02
-1.11
-4.08
-7.15
-9.69
-11.53
-12.92
-14.25
-15.76
-17.28
-18.30
-18.36
-17.26
-15.19
-12.57
-9.76
-7.06
-4.56
-2.30
-0.33
1.22
2.28
2.76
2.65
1.91
0.47
-1.66
-4.38
-7.37
-10.26
-12.65
-14.29
-15.14
-15.34
-15.05
-14.42
-13.45
-12.15
-10.64
-9.08
-7.63
-6.44
-5.44
-4.53
-3.66
-2.89
-2.46
-2.60
-3.43
-4.78
-6.40
-7.98
-9.36
-10.57
-11.78
-13.02
-14.24
-15.23
-15.81
-16.03
-16.11
-16.41
-17.29
-18.91
-21.10
-23.49
-25.58
-27.08
-27.95
-28.44
-28.86
-29.50
-30.33
-31.23
-31.99
-32.51
-32.85
-33.19
-33.69
-34.36
-35.10
-35.66
-35.87
-35.74
-35.37
-34.96
-34.68
-34.54
-34.42
-34.14
-33.55
-32.58
-31.36
-30.02
-28.61
-27.01
-25.02
-22.43
-19.22
-15.60
-11.97
-8.76
-6.21
-4.39
-3.19
-2.43
-1.97
-1.74
-1.72
-1.95
-2.52
-3.55
-5.28
-7.82
-11.01
-14.49
-17.73
-20.20
-21.51
-21.46
-19.95
-16.95
-12.47
-6.69
-0.19
6.14
11.22
14.24
14.96
13.83
11.78
9.83
8.70
8.54
9.24
10.51
12.13
14.11
16.51
19.30
22.28
25.06
27.28
28.87
30.11
31.41
33.15
35.59
38.57
41.78
44.94
47.80
50.39
52.82
55.15
57.26
58.94
59.95
60.18
59.79
59.02
58.15
57.23
56.19
54.86
53.04
50.72
47.98
44.90
41.51
37.75
33.57
29.03
24.36
19.90
15.96
12.70
10.08
7.93
5.98
4.07
2.13
0.21
-1.62
-3.36
-5.08
-6.86
-8.76
-10.53
-11.80
-12.15
-11.37
-9.63
-7.42
-5.42
-4.11
-3.72
-4.13
-5.03
-6.09
-7.16
-8.22
-9.32
-10.50
-11.61
-12.53
-13.21
-13.63
-13.93
-14.40
-15.27
-16.69
-18.61
-20.72
-22.58
-23.73
-23.80
-22.66
-20.44
-17.51
-14.27
-11.13
-8.30
-5.98
-4.28
-3.39
-3.49
-4.56
-6.38
-8.42
-9.99
-10.49
-9.69
-7.79
-5.42
-3.36
-2.15
-1.92
-2.34
-2.88
-3.02
-2.62
-1.83
-1.05
-0.58
-0.49
-0.58
-0.46
0.09
1.21
2.78
4.58
6.43
8.15
9.53
10.36
10.45
9.63
7.89
5.39
2.43
-0.60
-3.35
-5.61
-7.26
-8.32
-8.95
-9.29
-9.50
-9.76
-10.16
-10.75
-11.52
-12.40
-13.32
-14.24
-15.04
-15.71
-16.25
-16.64
-16.90
-16.96
-16.71
-16.02
-14.82
-13.03
-10.76
-8.22
-5.65
-3.33
-1.37
0.22
1.55
2.80
4.20
5.77
7.41
8.90
9.91
10.25
9.98
9.39
8.86
8.77
9.19
9.90
10.55
10.78
10.53
9.89
9.06
8.19
7.16
5.84
4.14
2.13
0.01
-1.96
-3.81
-5.71
-7.89
-10.49
-13.27
-15.71
-17.20
-17.29
-15.89
-13.33
-10.15
-6.89
-3.92
-1.32
1.04
3.31
5.63
7.92
10.05
11.85
13.20
14.10
14.61
14.83
14.67
14.13
13.13
11.76
10.24
8.78
7.50
6.44
5.49
4.45
3.25
1.83
0.21
-1.63
-3.78
-6.39
-9.61
-13.42
-17.63
-21.89
-25.74
-28.68
-30.32
-30.37
-28.79
-25.71
-21.46
-16.44
-11.03
-5.56
-0.17
5.13
10.33
15.38
20.07
24.12
27.29
29.58
31.17
32.38
33.53
34.75
35.95
36.95
37.56
37.64
37.20
36.36
35.25
33.94
32.48
30.85
28.98
26.81
24.23
21.22
17.79
13.93
9.64
4.99
0.13
-4.63
-8.97
-12.58
-15.25
-16.90
-17.57
-17.36
-16.25
-14.20
-11.19
-7.32
-2.82
2.03
6.88
11.48
15.66
19.33
22.41
24.87
26.59
27.49
27.50
26.58
24.87
22.57
19.99
17.36
14.87
12.58
10.38
8.09
5.40
2.14
-1.85
-6.58
-11.97
-17.84
-24.03
-30.45
-37.26
-44.61
-52.56
-60.95
-69.30
-76.70
-82.03
-84.21
-82.46
-76.64
-67.26
-55.28
-41.87
-28.07
-14.57
-1.69
10.49
21.98
32.75
42.64
51.48
59.15
65.59
70.84
74.95
78.00
80.10
81.37
81.87
81.74
81.12
80.20
79.12
77.96
76.60
74.90
72.52
69.15
64.66
59.12
52.82
46.17
39.48
32.77
25.98
18.85
11.22
3.22
-4.79
-12.32
-18.87
-24.21
-28.39
-31.68
-34.40
-36.98
-39.77
-43.05
-46.97
-51.29
-55.44
-58.61
-59.88
-58.55
-54.50
-48.08
-40.06
-31.39
-22.75
-14.61
-7.14
-0.36
5.64
10.70
14.62
17.34
18.99
19.99
20.88
22.05
23.77
25.90
28.10
30.00
31.32
32.01
32.17
32.03
31.68
31.19
30.49
29.50
28.19
26.62
24.88
23.08
21.27
19.44
17.53
15.39
12.85
9.78
6.16
2.07
-2.24
-6.46
-10.28
-13.46
-16.04
-18.27
-20.50
-23.09
-26.33
-30.19
-34.50
-38.84
-42.63
-45.26
-46.23
-45.16
-42.07
-37.29
-31.38
-25.02
-18.74
-12.80
-7.18
-1.74
3.51
8.40
12.58
15.80
17.98
19.31
20.16
20.94
