1547289945.00
64.000000
-0.00
-0.00
-0.00
-0.00
-0.00
-0.00
-0.00
-0.00
-0.00
-0.00
0.00
0.01
0.01
-0.00
-0.03
-0.05
-0.05
0.00
0.13
0.36
0.66
1.01
1.37
1.72
2.06
2.40
2.79
3.24
3.80
4.42
5.06
5.66
6.20
6.68
7.15
7.68
8.31
9.14
10.09
11.04
11.88
12.56
13.14
13.76
14.65
15.96
17.91
20.32
22.90
25.38
27.58
29.57
31.68
34.32
37.81
42.54
48.15
54.10
59.83
64.97
69.58
74.14
79.34
85.71
93.76
103.00
112.62
121.73
129.77
136.75
143.30
150.75
157.77
166.64
177.95
191.79
206.97
220.57
228.25
225.36
208.53
176.87
132.76
80.05
23.07
-34.94
-92.44
-149.16
-205.23
-260.37
-313.74
-363.87
-409.83
-450.91
-486.50
-515.74
-537.23
-549.22
-549.96
-538.37
-514.21
-478.67
-433.88
-382.45
-327.02
-269.84
-212.63
-156.66
-102.95
-52.37
-5.90
35.58
71.43
101.35
125.50
144.38
158.69
169.15
176.37
180.75
182.57
182.07
179.51
175.23
169.65
163.18
156.15
148.81
141.30
133.69
126.02
118.33
110.69
103.16
95.80
88.68
81.83
75.25
68.95
62.95
57.25
51.86
46.78
42.03
37.59
33.45
29.61
26.07
22.81
19.83
17.11
14.67
12.48
10.54
8.83
7.35
6.07
4.97
4.05
3.27
2.62
2.09
1.65
1.30
1.01
0.79
0.61
0.47
0.37
0.29
0.23
0.19
0.17
0.16
0.16
0.17
0.19
0.21
0.24
0.28
0.32
0.36
0.41
0.45
0.50
0.55
0.60
0.66
0.72
0.78
0.85
0.93
1.01
1.10
1.20
1.31
1.43
1.56
1.71
1.88
2.06
2.26
2.49
2.74
3.02
3.32
3.66
4.04
4.45
4.89
5.38
5.91
6.47
7.09
7.74
8.45
9.19
9.99
10.84
11.73
12.67
13.65
14.69
15.79
16.95
18.18
19.47
20.78
22.10
23.35
24.45
25.29
25.75
25.70
25.02
23.64
21.51
18.65
15.12
11.02
6.54
1.90
-2.71
-7.04
-10.93
-14.23
-16.87
-18.84
-20.20
-21.03
-21.43
-21.48
-21.26
-20.77
-20.06
-19.11
-17.94
-16.54
-14.86
-12.91
-10.66
-8.07
-5.11
-1.82
1.69
5.30
8.82
12.13
15.06
17.55
19.65
21.51
23.18
24.69
25.93
26.84
27.41
27.48
27.19
26.86
26.84
27.35
28.37
29.64
30.84
31.83
32.26
32.31
32.46
33.30
35.08
37.63
40.34
42.41
43.33
42.37
39.61
35.51
30.63
25.08
18.23
8.61
-6.23
-24.49
-46.50
-72.58
-102.47
-134.58
-165.82
-191.85
-208.34
-212.44
-203.89
-185.80
-162.74
-139.14
-117.89
-99.97
-84.96
-72.07
-60.93
-51.58
-44.63
-40.08
-37.14
-34.56
-31.17
-26.26
-19.63
-11.61
-2.67
6.47
15.34
23.74
31.56
38.64
44.71
49.31
52.00
52.54
50.90
47.57
43.38
39.23
35.84
33.51
32.13
31.27
30.38
29.02
27.02
24.54
21.93
19.51
17.45
15.57
13.53
10.92
7.60
3.64
-0.62
-4.89
-9.02
-13.06
-17.01
-20.67
-23.42
-24.40
-22.91
-18.68
-12.13
-4.22
3.89
11.12
16.79
20.57
22.44
22.55
21.21
18.88
16.06
13.27
10.90
9.09
7.81
6.87
6.27
6.05
6.08
6.12
5.88
5.13
3.67
1.38
-1.65
-4.94
-7.82
-9.88
-11.17
-12.40
-14.83
-19.78
-28.15
-39.69
-52.57
-64.35
-73.18
-78.44
-80.89
-82.25
-84.40
-88.76
-95.56
-102.58
-107.48
-109.30
-108.78
-107.65
-107.49
-109.27
-113.61
-120.40
-126.75
-130.40
-130.81
-128.05
-121.21
-107.79
-85.26
-53.75
-15.49
29.24
78.51
128.23
174.21
213.72
246.25
272.12
290.37
301.75
313.80
334.46
368.03
414.56
469.84
527.25
578.97
616.54
600.62
512.11
365.67
202.51
61.89
-38.46
-98.20
-120.14
-118.19
-100.93
-70.54
-30.96
-0.62
7.49
-10.03
-46.79
-87.51
-128.71
-166.03
-190.85
-196.52
-182.57
-153.60
-120.09
-94.54
-87.05
-102.90
-137.49
-178.25
-212.44
-232.40
-235.85
-225.18
-204.04
-175.64
-143.36
-108.71
-72.29
-35.47
-0.63
29.81
53.32
67.98
72.96
68.03
55.12
37.26
17.36
-2.23
-19.49
-32.83
-40.98
-43.38
-41.02
-35.91
-30.91
-28.40
-29.05
-31.41
-32.50
-29.07
-19.13
-3.06
16.65
36.01
51.14
59.50
60.15
54.33
45.46
38.34
37.39
44.83
59.67
77.66
92.66
98.45
91.47
72.59
46.60
19.66
-3.48
-21.01
-33.87
-41.12
-42.54
-40.76
-40.64
-46.48
-60.02
-79.68
-100.71
-116.51
-121.40
-113.62
-96.13
-75.02
-56.37
-43.71
-37.22
-34.48
-32.61
-31.20
-29.96
-29.66
-30.51
-31.53
-31.19
-28.38
-23.09
-16.41
-9.93
-4.83
-1.59
0.50
2.88
6.72
12.30
18.82
24.97
29.52
31.92
32.46
32.30
32.74
34.54
37.51
40.76
43.15
43.82
42.54
39.50
35.09
29.73
23.77
17.60
11.69
6.62
2.91
1.10
1.35
3.19
5.51
6.90
6.18
2.73
-3.32
-11.19
-19.18
-25.48
-28.86
-29.27
-27.59
-25.18
-23.36
-23.04
-24.55
-26.81
-28.20
-27.40
-24.36
-19.81
-14.85
-10.27
-6.32
-2.66
2.34
10.51
22.92
39.20
58.33
79.23
101.06
122.87
137.51
137.91
121.68
94.03
63.91
38.71
21.32
10.94
4.63
-1.00
-7.64
-15.62
-23.97
-33.62
-45.34
-58.68
-71.40
-80.07
-81.36
-71.85
-49.76
-16.15
24.10
63.51
91.52
98.11
77.18
29.41
-36.24
-104.56
-158.58
-185.13
-178.57
-142.17
-86.04
-23.65
32.41
73.81
97.48
104.66
98.97
84.63
65.37
44.41
24.94
10.10
2.72
4.34
14.30
29.62
45.71
58.00
63.49
61.61
53.97
43.45
32.84
23.85
16.71
10.49
3.89
-4.04
-13.34
-23.28
-32.64
-40.12
-44.70
-45.72
-42.84
-35.98
-25.38
-11.71
3.88
19.81
34.50
46.72
55.97
62.31
66.12
67.60
66.54
62.53
55.35
45.35
33.47
20.95
8.69
-3.01
-14.53
-26.56
-39.67
-53.86
-68.40
-81.98
-92.89
-99.48
-100.57
-95.87
-86.13
-72.99
-58.66
-45.39
-35.09
-29.06
-27.92
-31.56
-39.15
-49.16
-59.66
-68.67
-74.58
-76.50
-74.23
-68.08
-58.69
-46.93
-33.80
-20.42
-7.88
3.12
12.34
19.95
26.07
30.39
32.01
29.87
23.35
12.99
0.69
-10.82
-18.90
-21.94
-19.91
-14.24
-7.08
-0.53
4.00
6.06
5.94
4.35
2.15
0.05
-1.45
-2.13
-2.01
-1.20
0.30
2.70
6.46
12.00
19.33
27.68
35.53
41.11
43.10
41.29
36.71
31.13
26.17
22.51
19.60
16.31
11.77
6.35
1.91
1.07
6.14
18.16
36.60
59.63
84.62
108.36
127.19
137.68
137.91
129.11
116.13
106.18
105.64
116.76
136.14
156.05
168.25
167.86
155.27
135.33
114.47
97.88
87.95
84.25
84.37
84.73
81.33
70.77
51.28
23.67
-8.82
-41.92
-72.04
-97.58
-118.80
-136.62
-151.30
-162.10
-167.97
-168.48
-164.52
-157.91
-150.55
-143.72
-137.77
-132.40
-126.79
-119.82
-110.32
-97.46
-81.54
-64.19
-48.26
-36.75
-31.60
-32.94
-39.13
-47.61
-55.85
-62.03
-65.15
-64.81
-60.97
-53.90
-44.31
-33.38
-22.63
-13.56
-7.36
-4.65
-5.35
-8.75
-13.67
-18.63
-22.22
-23.36
-21.62
-17.28
-11.23
-4.65
1.35
6.09
9.43
11.66
13.27
14.67
16.06
17.38
18.39
18.79
18.31
16.74
14.02
10.23
5.62
0.67
-4.02
-7.73
-9.86
-10.03
-8.26
-4.98
-1.02
2.64
5.09
5.84
4.86
2.52
-0.63
-4.19
-8.07
-12.42
-17.42
-23.09
-29.06
-34.72
-39.38
-42.49
-43.68
-42.78
-39.70
-34.62
-28.07
-20.90
-14.12
-8.50
-4.19
-0.75
2.61
6.54
11.14
15.92
20.13
23.12
24.74
25.31
25.44
25.76
26.64
28.15
30.01
31.83
33.19
33.92
34.14
34.25
34.69
35.75
37.39
39.32
41.10
42.42
43.19
43.45
43.33
42.87
42.08
40.94
39.51
37.90
36.23
34.56
32.86
31.10
29.22
27.20
25.05
22.66
19.90
16.57
12.60
8.01
2.94
-2.41
-7.85
-13.15
-17.98
-21.84
-24.09
-24.11
-21.59
-16.71
-10.22
-3.18
3.33
8.54
12.16
14.24
15.05
14.87
13.88
12.24
10.17
7.96
5.90
4.22
2.91
1.79
0.56
-1.03
-3.08
-5.50
-8.05
-10.44
-12.41
-13.80
-14.61
-14.95
-14.94
-14.74
-14.40
-13.87
-13.05
-11.80
-10.01
-7.65
-4.78
-1.62
1.51
4.28
6.47
8.11
9.52
11.22
13.76
17.41
22.02
26.92
31.10
33.59
33.83
31.95
28.70
25.17
22.24
20.19
18.57
16.43
12.70
6.59
-2.20
-13.37
-25.99
-38.45
-48.64
-54.31
-54.00
-47.83
-38.06
-28.43
-22.80
-23.38
-29.72
-39.01
-47.59
-52.99
-55.05
-55.79
-57.89
-62.92
-70.27
-77.54
-81.89
-81.60
-76.84
-69.38
-61.46
-54.71
-49.56
-45.55
-42.05
-38.99
-37.08
-37.50
-41.20
-48.27
-57.72
-67.70
-76.14
-81.32
-82.27
-78.72
-70.88
-59.34
-45.11
-29.74
-15.23
-3.51
4.38
8.70
11.02
13.53
18.23
26.16
37.26
50.63
65.02
79.14
91.86
102.18
109.36
113.24
114.72
115.95
120.08
130.55
150.19
180.13
218.82
261.66
301.52
330.43
341.89
333.16
306.36
267.75
225.38
186.20
153.58
126.72
101.70
73.81
39.78
-1.13
-46.99
-94.15
-137.98
-173.55
-196.03
-201.42
-187.65
-155.83
-110.91
-61.11
-16.02
15.98
30.07
26.03
7.75
-18.52
-46.23
-70.31
-87.87
-98.15
-101.87
-100.51
-95.81
-89.44
-82.85
-77.12
-72.86
-70.19
-68.85
-68.39
-68.41
-68.69
-69.32
-70.43
-72.01
-73.73
-74.75
-73.85
-69.64
-61.14
-48.37
-32.76
-16.93
-3.95
3.78
5.40
1.91
-4.38
-10.91
-15.93
-18.90
-20.30
-20.84
-20.83
-19.93
-17.50
-13.14
-7.06
-0.12
6.58
12.20
16.42
19.48
21.93
24.12
26.02
27.20
27.11
25.43
22.41
18.82
15.72
14.08
14.32
16.21
18.97
21.67
23.59
24.50
24.56
24.07
23.20
21.83
19.63
16.35
12.04
7.09
2.09
-2.40
-5.95
-8.30
-9.25
-8.60
-6.19
-2.06
3.39
9.42
15.06
19.43
21.97
22.53
21.34
18.83
15.42
11.42
6.97
2.11
-3.05
-8.25
-13.07
-17.04
-19.79
-21.22
-21.51
-20.98
-19.89
-18.34
-16.24
-13.47
-10.12
-6.48
-2.98
-0.01
2.30
4.02
5.36
6.42
7.27
7.92
8.46
9.06
9.81
10.60
11.06
10.66
8.94
5.78
1.42
-3.67
-9.06
-14.49
-19.91
-25.35
-30.65
-35.51
-39.45
-42.17
-43.68
-44.30
-44.59
-44.95
-45.48
-45.89
-45.68
-44.50
-42.40
-39.88
-37.62
-36.10
-35.25
-34.32
-32.02
-27.12
-18.89
-7.58
5.56
18.67
29.89
38.04
42.95
45.34
46.36
47.02
47.81
48.64
49.12
48.85
47.64
45.53
42.64
39.13
35.17
31.09
27.43
24.76
23.50
23.58
24.43
25.14
24.87
23.19
20.26
16.69
13.13
9.99
7.28
4.70
1.94
-0.96
-3.51
-4.87
-4.16
-0.88
4.85
12.34
20.55
28.50
35.51
41.22
45.52
48.31
49.35
48.41
45.47
40.94
35.72
30.89
27.31
25.24
24.14
23.00
20.75
16.80
11.34
5.29
-0.20
-4.23
-6.57
-7.69
-8.46
-9.69
-11.72
-14.30
-16.65
-17.79
-16.87
-13.45
-7.62
-0.04
8.19
15.76
21.42
24.24
23.93
20.90
16.23
11.38
7.73
6.01
5.86
5.72
3.29
-3.54
-15.74
-32.43
-51.11
-68.63
-82.36
-91.11
-95.35
-96.62
-96.62
-96.55
-96.79
-97.25
-97.80
-98.55
-99.74
-101.37
-103.03
-103.90
-103.04
-99.89
-94.59
-88.29
-82.72
-79.48
-79.41
-82.34
-87.34
-93.21
-98.99
-104.09
-108.59
-112.63
-115.67
-116.29
-112.44
-101.81
-82.33
-52.53
-11.84
38.25
94.11
150.65
202.07
243.07
270.12
282.25
280.88
269.11
249.42
223.30
191.78
156.01
117.72
79.35
43.50
11.16
-13.39
-26.59
-28.67
-22.90
-13.36
-3.03
6.32
13.38
17.69
19.72
19.28
15.37
7.65
-2.66
-12.08
-16.46
-12.48
1.46
24.72
54.10
84.90
113.66
138.03
156.22
165.31
159.47
133.24
85.45
20.59
-53.97
-124.02
-175.91
-201.61
-193.46
-156.68
-108.20
-65.74
-37.39
-21.38
-11.89
-6.05
-4.41
-8.79
-20.47
-37.19
-54.79
-67.83
-74.40
-76.49
-79.18
-86.21
-97.79
-111.29
-121.61
-123.12
-112.04
-88.53
-52.94
-11.20
29.34
61.93
81.06
84.12
72.06
49.35
22.47
-1.29
-15.94
-17.34
-4.55
19.18
47.58
73.33
90.57
96.58
92.31
80.82
66.09
51.26
37.68
25.54
14.56
4.84
-2.92
-7.69
-8.70
-5.40
2.39
14.20
28.54
42.29
51.46
52.70
44.88
29.64
11.12
-5.35
-15.13
-15.84
-8.64
2.51
12.64
17.52
14.76
4.45
-11.10
-28.57
-41.84
-45.77
-39.73
-27.11
-12.02
2.82
16.11
27.32
36.19
42.60
46.10
46.60
44.91
42.37
40.19
38.75
37.24
34.09
28.16
18.41
6.01
-5.21
-10.00
-4.16
13.03
38.00
64.15
84.63
95.07
95.29
88.93
81.21
76.18
75.43
78.40
83.95
91.53
101.46
113.20
124.50
131.18
128.52
113.22
85.28
48.42
8.59
-28.44
-58.92
-81.71
-97.58
-107.91
-113.87
-116.30
-116.24
-115.24
-114.96
-116.28
-118.49
-119.28
-115.69
-105.29
-87.17
-62.17
-32.35
-0.25
31.66
61.48
87.81
109.65
125.86
135.17
136.51
129.79
116.73
100.93
86.71
77.70
75.35
78.21
82.37
83.21
77.22
63.39
43.33
20.26
-1.93
-19.74
-31.07
-35.95
-36.49
-35.98
-37.38
-42.01
-49.60
-58.17
-65.11
-68.51
-68.21
-65.34
-61.04
-55.68
-49.25
-44.06
-43.36
-49.72
-63.70
-83.75
-106.28
-126.70
-141.46
-150.11
-159.14
-176.03
-203.92
-239.62
-276.06
-305.40
-321.44
-321.33
-306.17
-285.37
-267.51
-254.58
-241.96
-223.64
-196.05
-158.94
-115.13
-70.09
-38.09
-31.93
-55.99
-105.61
-172.13
-246.17
-318.10
-379.35
-380.95
-300.14
-160.49
-14.65
99.06
171.60
211.89
233.30
246.22
256.01
257.07
243.56
216.21
182.29
149.74
123.94
107.92
102.68
106.63
110.69
106.16
90.83
69.71
50.12
37.50
33.84
37.64
44.64
47.99
43.08
31.05
17.49
7.89
4.57
6.85
11.82
16.04
15.85
9.19
-2.84
-16.86
-29.54
-39.09
-45.42
-49.63
-53.32
-57.81
-63.93
-71.26
-78.28
-83.23
-84.59
-81.12
-71.42
-58.76
-44.44
-29.45
-14.37
0.60
15.55
30.79
46.61
63.25
80.94
100.46
121.95
144.60
166.48
184.76
196.60
200.10
195.08
183.02
166.92
149.53
132.59
116.74
101.91
88.04
75.38
64.49
55.74
49.32
44.74
41.10
37.50
33.31
28.30
22.65
16.77
11.07
6.00
1.71
-2.03
-5.76
-10.16
-15.92
-23.53
-33.04
-43.99
-55.30
-65.44
-72.78
-76.00
-74.49
-68.61
-59.57
-49.08
-38.73
-29.60
-22.00
-15.61
-9.76
-3.89
2.24
8.42
14.15
18.93
22.56
25.30
27.81
30.90
35.08
40.26
45.69
50.27
53.05
53.78
53.15
52.51
53.23
56.05
60.64
65.74
69.63
70.94
69.10
64.67
59.14
54.69
53.67
57.92
68.04
82.60
97.90
108.51
108.97
95.88
69.82
35.80
2.04
-22.74
-32.32
-24.75
-2.54
29.04
64.27
98.80
130.47
159.02
185.33
210.45
234.83
257.66
276.57
287.84
287.26
271.55
239.71
193.65
137.61
76.75
15.67
-42.59
-96.66
-146.39
-192.55
-237.00
-282.57
-332.33
-387.68
-446.36
-501.48
-542.98
-561.00
-549.67
-509.57
-447.33
-372.84
-295.74
-222.82
-157.49
-100.79
-52.86
-13.60
17.25
40.48
57.16
68.03
72.87
70.87
61.66
46.46
28.45
12.01
1.04
-2.54
0.77
8.77
18.84
29.08
38.60
47.17
54.49
59.95
62.81
62.76
60.28
56.51
52.74
49.82
47.81
46.13
43.97
40.85
36.89
32.81
29.59
28.10
28.74
31.36
35.37
39.94
44.31
47.85
50.05
50.46
48.68
44.46
37.87
29.43
20.05
10.97
3.33
-1.94
-4.32
-3.70
-0.27
5.45
12.72
20.60
28.11
34.31
38.62
40.96
41.79
42.03
42.67
44.37
46.90
49.10
49.15
45.38
37.18
25.47
12.67
1.80
-4.57
-5.30
-1.01
6.15
13.15
16.85
14.76
5.66
-9.90
-29.50
-49.27
-65.08
-73.89
-74.92
-69.81
-61.73
-53.88
-48.14
-44.54
-41.72
-38.00
-32.34
-24.73
-15.95
-6.82
2.32
11.78
22.15
33.76
46.20
58.27
68.36
75.12
78.04
77.84
76.24
75.52
77.89
84.97
97.24
113.46
130.22
142.10
142.82
127.44
94.74
48.63
-2.52
-48.48
-80.73
-95.08
-92.36
-76.78
-53.31
-25.49
5.31
38.84
75.13
113.73
153.60
193.45
232.10
268.61
302.12
331.71
356.31
375.44
389.61
400.11
408.08
413.74
416.05
413.25
403.75
386.39
361.77
332.05
299.97
267.70
236.27
206.03
177.37
151.21
126.84
103.98
82.86
63.62
45.59
27.33
7.54
-13.98
-36.16
-61.19
-89.82
-120.69
-151.24
-179.91
-207.15
-234.33
-262.32
-290.70
-324.43
-365.65
-412.24
-459.24
-502.75
-542.32
-580.38
-620.64
-666.25
-726.53
-804.10
-891.37
-972.85
-1033.02
-1063.09
-1062.90
-1039.38
-950.84
-784.96
-563.64
-331.42
-125.89
37.26
158.14
242.91
298.45
331.71
341.73
330.68
306.43
280.69
263.91
260.60
270.76
289.97
310.91
318.96
303.77
264.17
208.29
148.91
97.55
61.34
41.87
36.55
36.92
36.31
33.77
30.29
26.59
22.34
17.90
15.84
20.87
35.40
59.34
89.70
121.95
152.08
178.94
204.47
231.16
258.46
280.76
290.27
281.40
254.19
213.67
167.53
122.27
81.02
43.33
7.49
-26.81
-59.62
-86.60
-104.10
-111.69
-111.85
-106.84
-96.69
-79.76
-55.27
-25.55
5.76
32.42
48.92
52.49
44.04
27.09
5.90
-15.89
-35.72
-51.30
-62.68
-68.66
-68.22
-61.32
-49.38
-35.51
-24.13
-20.05
-26.68
-45.27
-73.43
-105.63
-134.80
-154.89
-163.27
-161.31
-152.87
-141.53
-128.58
-112.06
-88.66
-56.34
-16.62
25.19
61.91
87.71
100.55
102.64
99.15
95.47
94.97
97.96
102.19
104.97
104.92
102.64
100.17
99.52
101.51
105.72
111.67
119.65
131.09
147.40
167.85
188.16
201.40
200.88
183.79
153.36
117.07
83.92
60.68
49.68
48.78
53.67
60.88
69.46
80.80
95.70
113.88
133.86
153.43
169.90
180.13
181.12
170.41
146.92
109.77
60.16
2.04
-58.39
-114.56
-161.22
-195.05
-214.72
-211.47
-180.29
-124.12
-54.35
15.45
76.04
124.24
161.36
189.83
213.88
234.25
249.83
259.28
262.03
258.19
247.92
233.27
215.90
197.28
176.75
152.92
124.67
91.80
55.10
16.08
-23.18
-60.85
-95.53
-127.74
-159.05
-191.38
-226.00
-263.24
-302.09
-340.21
-375.12
-404.60
-428.03
-446.42
-462.40
-479.65
-502.37
-532.91
-569.66
-607.25
-636.47
-646.64
-628.92
-579.61
-501.98
-406.59
-307.20
-216.63
-145.50
-98.92
-75.30
-67.79
-67.15
-65.28
-59.06
-48.76
-36.31
-26.45
-22.94
-26.28
-34.14
-43.06
-50.13
-55.36
-57.87
-54.39
-43.23
-22.76
9.34
55.21
116.46
203.47
312.16
422.05
527.30
622.44
698.04
745.09
757.99
736.75
686.93
615.94
533.17
448.10
364.44
282.32
201.03
120.19
40.14
-38.26
-115.00
-188.25
-253.64
-308.43
-351.41
-382.97
-405.24
-421.50
-434.76
-447.11
-457.71
-462.81
-459.30
-445.05
-418.97
-381.06
-332.29
-274.23
-209.24
-139.30
-65.67
9.88
84.80
155.55
217.47
265.53
295.99
307.69
303.13
287.83
268.17
249.51
234.86
224.55
216.83
208.93
198.06
181.89
158.99
129.12
93.50
55.02
17.87
-13.04
-33.17
-39.33
-30.36
-7.31
26.75
67.37
109.47
148.20
179.66
201.31
212.26
213.12
205.63
192.10
174.77
155.39
135.09
114.51
94.14
74.60
56.65
41.07
28.36
18.58
11.28
5.65
0.74
-4.32
-9.99
-16.22
-22.42
-27.61
-30.74
-31.06
-28.53
-23.90
-18.59
-14.25
-12.14
-12.73
-15.47
-18.96
-21.54
-21.95
-19.83
-15.95
-11.79
-8.93
-8.37
-10.14
-13.38
-16.85
-19.52
-20.99
-21.64
-22.34
-24.09
-27.65
-33.38
-41.27
-50.94
-61.72
-72.53
-81.89
-88.22
-90.11
-86.95
-79.19
-68.38
-56.85
-46.95
-40.53
-38.51
-40.86
-46.83
-55.19
-64.45
-72.87
-78.59
-79.81
-75.27
-64.70
-49.06
-30.46
-11.59
4.96
17.46
25.30
28.93
29.33
27.45
23.84
18.61
11.69
3.18
-6.31
-15.78
-24.09
-30.44
-34.73
-37.50
-39.76
-42.43
-45.93
-50.02
-54.00
-57.07
-58.73
-58.95
-58.00
-56.19
-53.65
-50.20
-45.56
-39.62
-32.62
-25.18
-18.00
-11.62
-6.28
-1.86
1.91
5.18
7.85
9.57
10.03
9.14
7.23
4.91
2.94
1.86
1.87
2.74
4.10
5.58
6.99
8.26
9.31
9.92
9.80
8.73
6.76
4.26
1.77
-0.26
-1.68
-2.82
-4.29
-6.73
-10.50
-15.53
-21.19
-26.53
-30.54
-32.33
-31.39
-27.59
-21.17
-12.71
-2.98
7.01
16.12
23.19
27.29
27.96
25.47
20.77
15.27
10.37
7.02
5.38
4.92
4.78
4.17
2.81
1.01
-0.57
-1.19
-0.52
1.23
3.49
5.55
6.92
7.44
7.28
6.69
5.81
4.61
2.97
0.83
-1.71
-4.46
-7.17
-9.67
-11.88
-13.68
-14.81
-14.88
-13.53
-10.51
-5.96
-0.35
5.64
11.31
16.10
19.73
22.13
23.44
23.86
23.54
22.51
20.69
17.93
14.21
9.76
5.15
1.21
-1.18
-1.39
0.72
4.69
9.52
13.98
16.98
17.82
16.44
13.31
9.29
5.34
2.19
0.16
-0.94
-1.72
-3.00
-5.45
-9.37
-14.46
-19.79
-24.04
-25.84
-24.22
-18.95
-10.65
-0.60
9.60
18.51
25.16
29.27
31.21
31.78
31.86
32.13
32.90
33.95
34.71
34.44
32.61
29.20
24.75
20.25
16.75
14.89
14.60
15.14
15.35
14.21
11.13
6.21
0.02
-6.60
-13.01
-18.79
-23.88
-28.38
-32.43
-36.19
-39.67
-42.73
-44.96
-45.76
-44.48
-40.67
-34.37
-26.22
-17.34
-8.94
-1.96
3.21
6.71
8.96
10.32
10.84
10.44
9.04
6.98
5.18
4.85
7.18
12.70
20.94
30.35
38.71
43.56
42.98
35.99
22.80
4.75
-15.99
-36.81
-55.29
-69.48
-78.27
-81.38
-79.26
-72.86
-63.29
-51.54
-38.36
-24.11
-8.82
7.54
24.82
42.46
59.41
74.41
86.42
95.05
100.80
104.76
108.19
111.97
116.32
120.72
124.23
125.68
123.88
117.78
106.68
90.52
70.20
47.74
25.97
7.80
-4.68
-10.94
-12.06
-10.32
-8.24
-7.75
-9.80
-14.47
-21.39
-30.23
-40.89
-53.36
-67.41
-82.36
-96.97
-109.66
-118.85
-123.35
-122.63
-116.96
-107.26
-94.88
-81.36
-67.93
-55.43
-44.18
-34.04
-24.76
-16.12
-8.07
-0.81
5.30
9.83
12.36
12.65
10.78
7.30
3.27
0.05
-0.93
1.21
6.62
14.48
23.27
31.18
36.68
38.76
37.18
32.24
24.54
14.83
3.76
-8.08
-20.12
-31.91
-43.03
-53.03
-61.44
-67.66
-71.03
-70.97
-67.22
-60.02
-50.22
-39.07
-27.99
-18.26
-10.76
-5.97
-3.94
-4.39
-6.87
-10.75
-15.35
-19.94
-23.87
-26.64
-27.98
-27.84
-26.38
-23.90
-20.68
-16.89
-12.54
-7.47
-1.41
5.88
14.49
24.38
35.20
46.31
56.83
65.71
71.98
74.95
74.48
71.04
65.68
59.75
54.66
51.59
51.24
53.75
58.70
65.13
71.77
77.26
80.46
80.68
77.80
72.30
65.03
57.07
49.41
42.74
37.44
33.41
30.36
27.76
25.15
22.16
18.58
14.29
9.27
3.57
-2.73
-9.38
-16.04
-22.25
-27.48
-31.39
-33.85
-35.05
-35.56
-36.09
-37.46
-40.26
-44.62
-50.13
-55.84
-60.52
-63.03
-62.67
-59.31
-53.39
-45.74
-37.27
-28.78
-20.91
-14.17
-9.11
-6.41
-6.84
-11.02
-19.06
-30.22
-42.77
-54.22
-61.82
-63.29
-57.41
-44.24
-25.07
-2.09
22.03
44.45
62.40
73.58
75.89
68.44
51.69
27.66
-0.43
-28.77
-53.87
-73.24
-85.71
-91.73
-92.49
-89.64
-84.96
-80.19
-77.01
-76.90
-80.80
-88.43
-99.45
-112.72
-127.68
-145.37
-168.68
-201.34
-246.13
-302.42
-363.89
-422.52
-467.49
-490.04
-486.24
-457.79
-410.36
-350.60
-283.28
-207.93
-126.90
-39.93
51.09
141.72
225.90
298.31
356.47
401.65
441.90
479.15
519.20
565.61
618.45
673.83
724.52
761.51
776.23
767.53
728.54
663.38
580.95
492.74
409.31
336.78
274.93
188.63
110.69
31.30
-46.72
-115.41
-166.14
-194.25
-201.48
-194.87
-183.08
-167.63
-156.21
-147.84
-140.68
-133.72
-126.90
-120.10
-112.39
-102.04
-83.89
-61.94
-38.01
-15.98
-0.72
3.32
-6.33
-28.94
-60.23
-91.15
-117.17
-132.78
-135.87
-128.03
-113.61
-98.02
-85.79
-79.05
-76.07
-75.19
-72.82
-66.57
-56.68
-46.20
-40.18
-44.14
-62.24
-95.49
-142.12
-196.32
-249.71
-293.09
-318.64
-321.66
-302.11
-265.04
-219.84
-177.90
-149.37
-139.98
-149.27
-171.38
-197.97
-221.55
-237.52
-243.75
-238.73
-220.09
-185.03
-132.66
-66.59
4.69
70.34
121.70
155.85
176.30
189.78
202.13
215.56
228.82
239.62
247.07
252.72
259.27
268.54
279.21
287.00
287.39
278.66
263.37
247.34
236.67
234.70
241.02
250.54
255.98
251.68
236.22
212.38
184.97
158.09
133.63
112.43
93.03
73.44
53.38
35.14
22.29
17.35
20.16
28.58
41.53
56.77
71.20
81.41
84.55
78.45
62.16
36.43
-5.73
-57.90
-106.26
-140.49
-160.61
-172.91
-182.75
-191.24
-198.19
-204.83
-212.57
-225.02
-244.97
-270.98
-296.38
-312.44
-308.23
-280.12
-231.97
-172.12
-112.12
-62.68
-29.85
-13.41
-8.31
-7.71
-6.21
-0.82
9.47
22.75
35.79
45.97
52.43
55.51
55.43
51.56
43.97
34.08
23.60
13.54
3.53
-7.92
-22.67
-42.23
-66.37
-91.84
-114.12
-129.70
-137.29
-137.26
-130.06
-115.99
-96.26
-72.90
-48.11
-25.42
-8.88
-1.29
-2.12
-6.96
-10.10
-8.42
-1.32
11.27
28.81
50.99
77.73
108.67
142.91
177.85
209.04
222.56
211.75
181.85
147.43
120.63
102.57
86.05
69.98
48.59
22.70
0.03
-10.86
-5.01
17.50
48.74
82.50
114.25
140.85
163.04
184.69
209.02
235.87
260.89
277.02
278.28
261.19
224.64
171.20
105.63
32.42
-44.49
-120.85
-190.37
-244.06
-273.46
-275.03
-251.63
-212.35
-169.55
-133.77
-109.72
-95.51
-85.17
-73.52
-59.73
-46.71
-38.47
-37.02
-41.13
-47.81
-54.78
-61.72
-69.78
-79.01
-85.62
-81.84
-58.54
-9.20
66.58
162.06
265.09
361.31
437.89
486.18
503.20
491.90
459.87
417.09
373.03
334.12
302.36
275.84
250.90
224.54
196.06
167.17
140.66
118.63
100.95
84.99
66.32
40.12
2.57
-48.02
-110.28
-178.91
-244.88
-296.78
-324.28
-322.47
-294.89
-253.52
-215.27
-195.89
-204.16
-238.57
-288.50
-338.73
-375.59
-392.10
-389.96
-377.86
-367.32
-367.83
-382.89
-408.78
-436.13
-453.73
-453.25
-432.19
-394.30
-346.91
-297.51
-250.80
-207.83
-167.29
-127.69
-88.97
-53.03
-22.47
1.39
19.15
32.92
44.74
54.95
61.71
62.36
55.12
40.27
20.18
-2.03
-23.80
-43.94
-62.66
-80.45
-96.92
-110.39
-118.25
-117.35
-104.68
-78.04
-37.28
13.81
67.80
115.77
150.31
168.49
173.21
171.01
169.60
174.27
184.64
196.91
206.86
212.55
214.83
216.14
216.43
212.70
200.00
172.53
129.77
78.60
31.00
-2.00
-15.82
-16.75
-17.19
-28.83
-59.40
-106.98
-161.77
-211.92
-250.19
-275.66
-294.33
-312.01
-314.18
-289.57
-236.38
-164.95
-89.76
-27.66
24.02
69.17
110.69
150.47
185.16
210.33
223.48
225.14
217.52
203.89
185.24
162.86
139.19
115.23
92.10
70.52
50.27
30.03
8.94
-14.14
-37.98
-59.39
-76.23
-87.33
-92.61
-92.70
-88.68
-81.37
-72.39
-62.97
-53.78
-45.79
-39.55
-34.98
-31.30
-27.51
-22.54
-16.23
-8.92
-1.28
5.61
10.90
14.28
16.01
16.63
16.62
16.01
14.68
12.72
10.73
9.75
10.97
15.22
22.51
32.06
42.65
53.05
62.42
70.26
76.24
79.96
80.98
79.08
74.61
68.52
62.13
56.68
52.84
50.71
49.91
50.05
50.95
52.64
55.12
58.07
60.72
62.10
61.41
58.39
53.51
47.67
41.97
37.08
33.00
29.06
24.52
18.92
12.25
4.90
-2.39
-8.49
-12.14
-12.16
-7.83
1.12
14.21
30.08
46.68
61.81
74.04
82.73
88.07
90.47
90.80
89.74
87.59
84.25
79.68
75.10
72.04
71.53
72.80
75.07
77.28
78.50
77.99
75.82
74.58
76.86
83.80
92.69
101.38
107.87
110.98
110.04
105.73
102.71
105.46
116.17
130.92
146.54
159.52
166.86
165.81
155.60
141.96
131.79
130.68
137.77
153.68
178.03
209.28
243.10
253.44
222.70
148.31
67.02
-8.79
-74.77
-134.74
-187.10
-231.13
-267.70
-294.52
-310.92
-317.20
-317.82
-307.86
-282.79
-242.89
-196.36
-159.24
-133.16
-115.44
-102.81
-93.98
-86.16
-76.73
-63.55
-46.57
-26.91
-4.00
20.65
43.96
60.30
66.29
60.48
44.31
21.53
-2.14
-19.44
-26.28
-22.56
-12.25
0.36
12.02
21.42
28.64
34.22
38.87
41.91
42.37
39.67
34.45
27.79
20.18
10.83
-1.88
-18.85
-39.51
-61.11
-79.24
-89.65
-89.79
-79.91
-62.88
-43.10
-25.01
-11.95
-5.13
-3.33
-3.35
-1.27
6.07
19.56
37.22
54.66
66.98
70.87
66.09
55.46
43.14
32.42
24.27
17.38
9.51
-0.99
-14.36
-29.41
-44.03
-55.66
-61.74
-60.40
-51.54
-38.00
-25.64
-21.83
-32.49
-59.13
-97.60
-139.55
-175.72
-199.13
-206.81
-199.37
-179.54
-151.08
-118.59
-87.58
-63.84
-51.72
-52.24
-62.39
-76.29
-87.67
-92.41
-89.71
-81.23
-69.33
-55.45
-39.90
-22.49
-3.63
15.41
33.11
48.72
62.89
77.30
93.60
112.11
131.54
149.56
164.03
174.15
180.86
186.25
192.42
200.37
209.50
218.17
224.76
228.60
230.43
231.93
234.50
238.15
240.86
239.10
229.04
208.08
175.97
135.00
88.99
42.07
-2.74
-44.15
-82.45
-119.06
-156.04
-195.72
-240.13
-289.90
-342.94
-393.53
-432.89
-451.33
-441.47
-401.27
-335.32
-253.95
-170.20
-96.21
-40.43
-6.60
5.37
-2.32
-26.68
-64.44
-111.55
-162.61
-211.01
-249.72
-272.72
-276.28
-259.98
-226.73
-182.24
-133.90
-89.18
-54.08
-31.90
-22.86
-24.69
-33.79
-46.33
-58.94
-68.83
-73.58
-71.22
-60.66
-42.05
-16.82
12.62
43.36
72.35
96.74
114.45
124.96
129.58
130.82
130.57
128.23
120.42
103.09
74.65
38.16
0.49
-31.26
-53.88
-69.63
-84.00
-101.21
-120.55
-136.41
-142.32
-135.93
-121.47
-107.83
-103.46
-111.41
-127.86
-145.00
-155.85
-158.23
-155.00
-151.19
-149.81
-149.54
-145.52
-132.77
-110.23
-82.37
-57.60
-44.30
-46.31
-60.81
-79.18
-91.00
-88.51
-69.99
-40.14
-7.53
19.77
38.03
49.22
59.43
75.12
99.55
131.17
164.94
195.16
218.22
233.83
243.75
249.66
251.31
246.53
232.80
209.55
179.23
146.71
117.27
94.43
79.04
69.67
64.08
60.63
58.90
59.59
63.55
71.06
81.45
93.19
104.35
113.08
117.96
118.09
113.20
103.56
89.76
72.36
51.86
29.07
5.68
-15.22
-29.65
-34.09
-27.24
-11.02
9.81
29.38
43.00
48.64
47.10
40.91
32.77
24.44
16.51
8.75
0.83
-7.41
-15.86
-24.35
-32.73
-40.80
-48.22
-54.32
-58.19
-58.89
-55.65
-48.23
-37.12
-23.57
-9.26
4.02
14.91
22.77
27.70
30.38
31.73
32.57
33.35
34.18
34.87
35.24
35.19
34.83
34.38
34.03
33.81
33.66
33.35
32.61
31.18
28.92
25.77
21.84
17.44
12.97
8.82
5.20
2.03
-1.02
-4.32
-8.03
-11.95
-15.51
-17.91
-18.41
-16.55
-12.27
-5.84
2.13
10.86
19.56
27.41
33.80
38.32
40.83
41.50
40.69
38.84
36.43
33.90
31.62
29.84
28.70
28.20
28.20
28.47
28.73
28.77
28.43
27.66
26.48
24.91
22.98
20.69
18.04
15.06
11.77
8.31
4.75
1.14
-2.52
-6.24
-9.96
-13.42
-16.08
-17.29
-16.40
-13.04
-7.26
0.41
9.13
17.94
25.98
32.60
37.37
40.09
40.74
39.53
36.90
33.48
29.98
27.05
25.10
24.30
24.53
25.46
26.69
27.85
28.63
28.85
28.45
27.40
25.76
23.62
21.13
18.45
15.74
13.09
10.49
7.85
4.99
1.68
-2.27
-6.98
-12.36
-18.08
-23.48
-27.71
-29.81
-29.00
-24.95
-17.93
-8.82
1.06
10.35
17.95
23.26
26.18
27.02
26.27
24.40
21.82
18.82
15.64
12.53
9.70
7.36
5.63
4.53
3.91
3.46
2.70
1.23
-1.20
-4.55
-8.49
-12.59
-16.51
-20.06
-23.22
-25.96
-28.17
-29.68
-30.44
-30.65
-30.86
-31.73
-33.67
-36.55
-39.60
-41.58
-41.29
-37.92
-31.41
-22.43
-12.14
-1.84
7.32
14.58
19.53
22.08
22.44
20.95
18.10
14.51
10.85
7.73
5.58
4.63
4.78
5.69
6.92
8.02
8.74
9.03
8.97
8.63
7.97
6.83
4.97
2.27
-1.18
-5.03
-8.82
-12.16
-14.89
-17.20
-19.50
-22.27
-25.79
-30.02
-34.48
-38.32
-40.58
-40.38
-37.19
-31.06
-22.63
-12.96
-3.30
5.23
11.86
16.27
18.52
18.87
17.69
15.30
12.10
8.53
5.20
2.70
1.51
1.75
3.20
5.33
7.51
9.20
10.06
9.95
8.90
7.02
4.55
1.77
-1.01
-3.54
-5.69
-7.56
-9.39
-11.53
-14.30
-17.83
-21.94
-26.08
-29.32
-30.61
-29.05
-24.27
-16.59
-7.00
3.07
12.18
19.24
23.69
25.50
25.02
22.79
19.42
15.47
11.46
7.80
4.81
2.69
1.55
1.36
1.94
3.00
4.12
4.83
4.77
3.72
1.74
-0.94
-3.96
-7.05
-10.05
-12.96
-15.84
-18.76
-21.81
-25.04
-28.54
-32.23
-35.84
-38.63
-39.61
-37.76
-32.46
-23.88
-13.00
-1.38
9.34
17.91
23.78
27.02
28.12
27.67
26.19
24.06
21.65
19.36
17.61
16.73
16.93
18.22
20.47
23.45
26.91
30.54
33.98
36.82
38.67
39.30
38.69
37.10
34.90
32.44
29.85
27.03
23.78
19.86
15.17
9.81
4.13
-1.33
-5.83
-8.58
-8.93
-6.54
-1.60
5.18
12.73
19.90
25.71
29.59
31.29
30.90
28.71
25.11
20.61
15.82
11.32
7.58
4.84
3.05
1.87
0.84
-0.47
-2.35
-4.82
-7.76
-10.92
-14.10
-17.22
-20.25
-23.18
-25.91
-28.26
-30.05
-31.21
-31.83
-32.19
-32.59
-33.24
-34.05
-34.67
-34.48
-32.83
-29.22
-23.46
-15.81
-6.98
2.02
10.09
16.31
20.15
21.48
20.59
17.97
14.17
9.78
5.32
1.37
-1.61
-3.29
-3.58
-2.74
-1.30
0.12
0.98
0.88
-0.24
-2.30
-5.06
-8.24
-11.54
-14.67
-17.39
-19.57
-21.20
-22.48
-23.72
-25.25
-27.34
-30.07
-33.24
-36.36
-38.67
-39.29
-37.46
-32.82
-25.56
-16.49
-6.85
2.07
9.22
14.09
16.68
17.35
16.56
14.71
12.10
9.03
5.89
3.21
1.49
1.06
1.88
3.57
5.53
7.18
8.12
8.29
7.79
6.85
5.67
4.40
3.16
2.11
1.37
1.04
1.10
1.36
1.47
1.05
-0.18
-2.29
-4.98
-7.56
-9.08
-8.59
-5.53
0.09
7.52
15.53
22.74
28.03
30.82
31.14
29.40
26.18
22.05
17.49
12.92
8.75
5.36
3.00
1.73
1.45
1.82
2.46
2.99
3.06
2.47
1.12
-0.95
-3.60
-6.58
-9.66
-12.59
-15.21
-17.47
-19.44
-21.38
-23.61
-26.42
-29.91
-33.80
-37.46
-39.96
-40.39
-38.18
-33.28
-26.28
-18.23
-10.35
-3.71
1.04
3.71
4.50
3.81
1.99
-0.68
-3.96
-7.50
-10.74
-12.93
-13.40
-11.82
-8.46
-4.10
0.20
3.57
5.59
6.43
6.68
6.96
7.71
9.03
10.73
12.50
14.04
15.09
15.41
14.72
12.80
9.57
5.33
0.82
-2.79
-4.30
-2.79
1.87
8.96
17.08
24.62
30.23
33.31
33.98
32.92
31.05
29.17
27.74
26.88
26.46
26.21
25.96
25.71
25.68
26.16
27.32
28.99
30.73
31.86
31.76
30.00
26.35
20.65
12.82
3.18
-7.38
-17.43
-25.52
-30.96
-34.28
-37.16
-41.45
-48.10
-56.41
-64.24
-69.01
-68.94
-63.82
-54.91
-44.14
-33.26
-23.25
-14.42
-6.77
-0.40
4.43
7.42
8.52
8.08
6.86
5.74
5.46
6.29
8.00
9.94
11.35
11.67
10.75
8.85
6.52
4.30
2.52
1.18
0.02
-1.34
-3.16
-5.54
-8.40
-11.58
-14.90
-18.25
-21.39
-23.95
-25.30
-24.70
-21.50
-15.47
-7.01
2.86
12.72
21.21
27.42
31.07
32.47
32.20
30.86
28.85
26.38
23.58
20.68
17.95
15.62
13.74
12.10
10.26
7.83
4.60
0.62
-3.77
-8.18
-12.25
-15.75
-18.63
-20.86
-22.46
-23.45
-23.90
-23.97
-23.96
-24.26
-25.16
-26.76
-28.75
-30.46
-30.95
-29.40
-25.32
-18.86
-10.78
-2.19
5.71
12.04
16.35
18.66
19.30
18.68
17.26
15.42
13.54
11.97
11.00
10.84
11.46
12.69
14.18
15.58
16.55
16.89
16.54
15.49
13.82
11.59
8.87
5.76
2.38
-1.00
-4.06
-6.50
-8.14
-9.07
-9.64
-10.39
-11.81
-14.14
-17.21
-20.41
-22.84
-23.52
-21.75
-17.25
-10.35
-1.92
6.87
14.76
20.80
24.45
25.63
24.71
22.26
18.92
15.28
11.80
8.85
6.67
5.37
4.92
5.08
5.53
5.89
5.89
5.39
4.42
3.12
1.59
-0.05
-1.80
-3.66
-5.61
-7.57
-9.46
-11.17
-12.71
-14.18
-15.80
-17.82
-20.39
-23.43
-26.51
-28.93
-29.81
-28.43
-24.44
-18.08
-10.15
-1.84
5.70
11.58
15.41
17.26
17.51
16.63
15.01
12.98
10.75
8.62
6.88
5.84
5.64
6.23
7.35
8.56
9.49
9.87
9.64
8.89
7.75
6.31
4.56
2.45
-0.02
-2.72
-5.43
-7.85
-9.79
-11.22
-12.38
-13.66
-15.51
-18.18
-21.53
-24.91
-27.36
-27.83
-25.60
-20.58
-13.37
-5.12
2.87
9.53
14.19
16.73
17.37
16.52
14.63
12.11
9.33
6.65
4.44
2.97
2.42
2.76
3.82
5.28
6.74
7.89
8.46
8.31
7.39
5.77
3.58
1.03
-1.64
-4.23
-6.65
-8.92
-11.14
-13.46
-16.00
-18.78
-21.75
-24.66
-27.08
-28.42
-28.02
-25.43
-20.53
-13.70
-5.80
2.11
8.97
14.08
17.12
18.19
17.62
15.88
13.40
10.59
7.83
5.48
3.83
3.13
3.42
4.59
6.35
8.27
9.87
10.72
10.53
9.19
6.82
3.72
0.36
-2.80
-5.42
-7.38
-8.73
-9.62
-10.26
-10.90
-11.82
-13.28
-15.47
-18.40
-21.84
-25.12
-27.24
-27.25
-24.57
-19.30
-12.15
-4.30
2.98
8.52
11.68
12.38
10.89
7.70
3.55
-0.59
-3.78
-5.39
-5.69
-5.23
-4.64
-4.60
-5.46
-6.82
-7.58
-6.56
-3.08
1.94
7.28
11.85
14.70
15.63
15.69
17.09
21.81
30.69
41.63
52.25
61.11
67.90
73.55
79.33
85.94
93.06
100.87
110.50
123.00
142.13
168.78
196.59
213.61
209.30
180.82
140.40
95.66
52.64
13.77
-23.21
-62.31
-105.62
-149.26
-187.15
-209.95
-215.73
-209.19
-198.42
-189.35
-181.80
-171.22
-153.24
-127.96
-99.43
-74.50
-56.73
-45.34
-37.58
-31.54
-27.60
-27.26
-31.34
-38.21
-46.20
-53.19
-57.86
-60.22
-60.90
-60.16
-57.04
-51.44
-41.51
-27.79
-12.33
2.07
13.05
19.49
21.80
21.49
20.24
19.36
18.78
18.05
16.85
15.37
14.23
14.08
15.32
17.78
21.02
24.10
26.22
27.00
26.49
25.12
23.31
21.25
18.81
15.85
12.06
7.29
1.54
-5.20
-13.04
-22.27
-33.14
-45.45
-58.19
-69.60
-77.58
-80.48
-77.86
-70.55
-60.44
-49.62
-39.42
-29.93
-20.14
-8.74
5.14
21.54
40.04
59.49
77.91
92.60
100.68
100.41
92.20
79.14
66.41
60.15
64.79
81.32
106.64
134.75
158.95
173.56
175.44
164.66
145.02
122.19
101.40
85.49
74.29
65.67
56.34
43.25
21.41
-10.80
-51.05
-94.35
-136.23
-176.44
-215.16
-251.81
-282.81
-305.32
-317.06
-317.05
-305.93
-286.04
-260.86
-234.07
-208.95
-187.81
-171.77
-159.82
-149.58
-138.85
-126.70
-113.91
-102.63
-95.32
-94.04
-99.83
-111.54
-125.43
-137.32
-144.00
-143.89
-137.16
-123.12
-100.93
-70.69
-33.74
8.49
53.11
96.62
136.47
170.80
202.32
234.82
270.28
308.22
348.42
388.88
426.31
456.68
474.14
478.76
473.63
462.62
449.64
440.73
439.86
448.13
464.11
482.08
501.35
521.92
542.03
534.08
479.43
376.03
242.50
128.22
43.32
-16.32
-60.36
-104.22
-154.75
-209.14
-260.79
-303.57
-335.50
-360.14
-375.20
-378.01
-368.44
-348.59
-320.27
-286.71
-252.34
-222.10
-202.37
-193.40
-193.58
-201.13
-213.58
-226.47
-234.74
-233.87
-221.61
-202.75
-178.87
-152.71
-127.56
-105.24
-85.50
-67.47
-50.83
-36.31
-25.76
-18.95
-15.10
-12.90
-10.90
-8.32
-5.51
-3.59
-3.52
-5.33
-7.45
-8.61
-8.11
-5.69
-1.15
6.23
17.63
33.86
54.34
76.53
95.90
106.43
104.64
92.18
75.32
61.04
53.08
50.81
51.54
53.22
56.67
64.18
77.05
93.70
109.89
120.99
124.63
123.82
120.29
115.42
108.04
95.13
73.37
41.39
1.20
-41.67
-80.02
-107.89
-118.84
-111.94
-91.65
-65.95
-43.34
-30.29
-29.87
-41.69
-63.26
-90.45
-119.74
-147.71
-171.38
-188.35
-196.85
-196.05
-186.03
-170.20
-149.00
-124.15
-97.26
-69.31
-40.41
-9.77
23.26
57.84
91.15
119.54
137.02
141.43
134.90
122.22
108.36
96.02
85.24
74.74
64.19
54.15
46.02
40.87
36.91
31.93
24.84
17.03
11.87
12.95
21.50
35.68
51.00
62.35
66.32
61.91
50.13
32.83
12.19
-9.54
-29.53
-44.96
-53.63
-54.67
-49.19
-39.53
-29.54
-23.17
-23.00
-29.07
-39.02
-48.98
-54.99
-54.43
-46.82
-33.78
-18.02
-2.21
12.00
24.09
34.27
42.79
49.51
54.00
55.90
55.45
53.56
51.32
49.53
48.34
47.29
45.72
43.21
39.88
36.44
33.91
33.05
33.87
35.45
36.20
34.47
29.19
20.41
9.61
-0.46
-6.30
-4.73
5.87
24.41
46.79
66.91
78.67
78.40
66.12
45.34
21.20
-1.89
-21.80
-38.83
-54.49
-70.18
-86.53
-103.72
-122.05
-141.63
-161.28
-177.67
-185.59
-180.18
-160.06
-129.18
-96.14
-70.51
-58.47
-60.29
-70.79
-82.87
-91.56
-96.08
-99.22
-104.90
-115.94
-133.05
-155.16
-179.76
-202.89
-218.70
-220.01
-200.80
-159.57
-101.57
-37.69
19.78
62.62
90.10
108.52
127.46
154.73
192.22
235.71
277.59
310.68
330.89
337.36
330.80
312.21
281.98
240.27
188.72
131.67
76.01
29.25
-3.45
-21.62
-28.27
-27.85
-24.27
-19.33
-12.75
-3.47
9.24
25.11
43.41
62.54
82.21
101.78
118.50
127.98
127.17
117.47
107.69
102.38
103.08
107.75
111.39
108.83
98.03
79.83
59.75
43.96
35.45
33.41
33.91
31.96
24.09
9.83
-8.84
-28.98
-48.79
-68.25
-87.33
-104.94
-119.06
-127.68
-129.58
-124.87
-114.32
-98.97
-80.11
-59.25
-38.87
-22.47
-13.32
-12.55
-18.12
-25.61
-30.76
-31.92
-30.46
-29.48
-31.56
-37.07
-44.13
-50.19
-53.84
-55.81
-58.35
-63.55
-71.99
-82.39
-92.40
-99.85
-103.65
-103.87
-101.24
-96.48
-89.96
-81.84
-72.36
-62.06
-51.76
-42.10
-33.25
-24.79
-16.15
-7.05
2.28
11.26
19.57
27.57
36.27
46.73
59.42
74.04
89.70
105.19
119.14
129.86
135.07
132.17
119.27
96.46
66.75
35.36
7.77
-12.80
-26.80
-37.96
-50.87
-68.28
-89.50
-110.77
-127.32
-135.76
-135.43
-128.12
-116.82
-104.19
-91.79
-80.44
-70.84
-64.08
-61.24
-62.61
-67.16
-72.57
-76.08
-75.79
-71.41
-64.17
-55.88
-47.93
-40.90
-34.90
-30.43
-28.69
-31.27
-39.03
-51.12
-64.85
-76.60
-83.26
-83.49
-77.93
-68.45
-57.03
-44.85
-32.06
-18.13
-2.47
15.00
33.61
52.07
68.79
82.47
92.51
99.05
102.77
104.29
103.80
100.93
95.12
86.25
75.01
62.74
50.87
40.29
31.08
22.75
14.81
7.29
0.71
-4.24
-7.15
-8.15
-7.76
-6.58
-5.07
-3.40
-1.57
0.39
2.51
4.82
7.38
10.12
12.81
14.92
16.00
15.94
15.13
14.30
14.09
14.67
15.61
16.26
16.14
15.31
14.22
13.32
12.74
12.20
11.26
9.70
7.71
5.75
4.22
3.20
2.47
1.83
1.28
1.14
1.82
3.52
6.12
9.14
12.11
14.67
16.64
17.90
18.22
17.36
15.25
12.17
8.75
5.75
3.58
2.19
1.07
-0.33
-2.26
-4.59
-6.94
-9.07
-11.02
-13.15
-15.74
-18.87
-22.29
-25.64
-28.69
-31.45
-33.96
-36.13
-37.57
-37.64
-35.87
-32.16
-26.98
-21.14
-15.51
-10.69
-6.85
-3.89
-1.60
0.07
1.04
1.24
0.79
0.17
-0.03
0.70
2.39
4.56
6.40
7.21
6.79
5.53
4.15
3.27
2.95
2.66
1.59
-0.82
-4.60
-9.06
-13.22
-16.11
-17.17
-16.33
-13.84
-10.06
-5.34
0.07
5.87
11.66
16.88
20.92
23.25
23.62
22.16
19.41
16.12
13.02
10.53
8.57
6.63
3.97
0.05
-5.23
-11.35
-17.43
-22.56
-26.23
-28.40
-29.48
-30.09
-30.80
-31.96
-33.67
-35.74
-37.53
-37.93
-35.33
-28.07
-14.99
3.87
26.97
51.54
74.33
92.57
104.59
110.09
109.81
105.03
97.13
87.34
76.82
66.57
57.49
50.22
44.92
41.19
38.17
34.89
30.61
25.18
19.07
13.11
8.00
3.96
0.49
-3.28
-8.16
-14.44
-21.69
-28.92
-34.98
-39.00
-40.53
-39.55
-36.27
-31.11
-24.68
-17.87
-11.57
-6.41
-2.39
1.22
5.57
11.61
19.47
28.17
35.93
40.87
41.89
39.27
34.68
30.60
29.49
32.82
40.60
51.31
62.43
71.28
76.01
76.13
72.78
68.48
66.49
69.77
79.60
94.51
109.97
119.47
116.92
99.49
69.55
34.65
5.02
-10.57
-8.66
7.14
27.30
40.07
36.17
12.51
-26.80
-72.46
-114.11
-144.67
-162.89
-172.89
-181.01
-191.78
-205.12
-216.08
-217.24
-202.29
-168.98
-119.94
-61.57
-1.65
52.60
95.82
124.65
137.79
136.16
123.12
103.81
83.87
67.50
56.09
48.15
40.79
31.98
21.93
12.94
7.56
6.61
8.33
9.47
7.34
1.55
-5.96
-12.48
-16.52
-18.82
-21.69
-27.32
-36.39
-47.85
-59.87
-71.16
-81.66
-92.22
-103.53
-115.37
-126.42
-135.02
-139.89
-140.71
-137.89
-132.14
-123.91
-113.27
-100.12
-84.48
-66.78
-47.83
-28.61
-10.00
7.31
22.92
36.49
47.57
55.54
59.85
60.34
57.60
53.09
48.81
46.61
47.53
51.31
56.52
61.15
63.44
62.62
59.07
54.04
48.97
44.87
41.90
39.53
36.85
33.09
27.85
21.27
13.86
6.38
-0.30
-5.35
-8.00
-7.72
-4.25
2.27
11.22
21.57
32.02
41.31
48.47
52.96
54.70
54.03
51.46
47.57
42.90
37.95
33.17
29.00
25.76
23.63
22.57
22.32
22.46
22.49
21.87
20.18
17.08
12.39
6.16
-1.42
-9.95
-18.99
-28.01
-36.36
-43.30
-47.93
-49.41
-47.22
-41.42
-32.84
-22.86
-13.13
-5.05
0.52
3.34
3.69
2.30
0.21
-1.23
-0.61
3.16
10.41
20.39
31.39
41.28
48.20
51.11
50.04
45.78
39.45
32.04
24.14
16.01
7.73
-0.61
-8.76
-16.35
-23.08
-28.88
-34.02
-38.87
-43.64
-48.10
-51.50
-52.82
-51.21
-46.42
-38.99
-29.99
-20.65
-11.92
-4.34
1.89
6.66
9.83
11.27
11.00
9.30
6.75
3.97
1.41
-0.81
-2.85
-5.03
-7.55
-10.39
-13.36
-16.14
-18.50
-20.33
-21.68
-22.69
-23.52
-24.28
-25.05
-25.92
-26.93
-28.18
-29.76
-31.73
-34.05
-36.45
-38.35
-38.86
-36.97
-31.77
-22.92
-10.84
3.22
17.56
30.47
40.78
48.03
52.43
54.57
55.04
54.26
52.47
49.90
46.93
44.04
41.76
40.34
39.70
39.35
38.60
36.73
33.32
28.40
22.43
16.20
10.52
5.91
2.39
-0.44
-3.19
-6.31
-9.90
-13.61
-16.98
-19.66
-21.62
-23.02
-23.92
-24.10
-22.98
-19.97
-14.72
-7.49
0.89
9.29
16.65
22.28
25.98
27.93
28.44
27.73
25.84
22.73
18.46
13.35
8.04
3.33
-0.19
-2.41
-3.79
-5.25
-7.67
-11.50
-16.58
-22.19
-27.44
-31.60
-34.36
-35.70
-35.80
-34.87
-33.20
-31.25
-29.80
-29.81
-31.98
-36.37
-41.99
-47.06
-49.51
-47.77
-41.33
-30.87
-17.93
-4.39
8.17
18.68
26.72
32.35
35.87
37.70
38.21
37.68
36.30
34.20
31.47
28.31
24.99
21.92
19.54
18.12
17.64
17.70
17.55
16.40
13.73
9.47
4.17
-1.15
-5.06
-6.01
-2.71
5.32
17.17
30.40
41.68
48.13
48.58
44.26
38.27
34.22
34.60
39.97
49.20
60.55
72.64
84.78
96.44
106.65
113.65
115.45
110.86
100.23
85.55
69.80
55.77
45.13
38.09
33.67
30.40
27.08
23.08
18.40
13.27
7.84
2.00
-4.47
-11.71
-19.56
-27.56
-35.16
-42.01
-48.16
-54.08
-60.39
-67.55
-75.50
-83.60
-90.82
-96.01
-98.13
-96.23
-89.50
-77.52
-60.72
-40.96
-21.53
-6.48
0.86
-0.63
-9.15
-20.43
-29.45
-32.56
-29.06
-21.46
-14.39
-12.78
-20.13
-37.35
-62.50
-91.34
-118.59
-139.63
-152.03
-156.55
-156.77
-157.53
-162.90
-174.53
-191.23
-209.97
-227.53
-241.12
-248.45
-247.39
-236.29
-215.34
-187.53
-157.86
-130.57
-105.80
-78.52
-41.15
11.22
76.14
142.68
195.02
219.14
208.94
168.62
110.61
50.55
1.98
-26.93
-34.30
-23.73
-2.56
19.92
34.49
34.01
14.54
-23.88
-77.25
-138.16
-196.74
-242.15
-265.18
-260.72
-228.86
-175.46
-110.43
-44.87
12.21
55.68
85.36
104.32
117.09
129.42
146.08
169.85
201.12
238.33
278.27
318.19
355.32
386.83
411.63
428.41
435.48
431.21
415.47
389.97
359.84
329.91
302.09
276.77
251.88
224.91
195.31
165.93
141.22
127.07
125.60
119.93
96.33
50.00
-10.95
-71.62
-113.52
-139.31
-157.08
-175.28
-199.23
-228.03
-254.95
-271.99
-274.24
-261.91
-240.66
-216.34
-194.02
-176.40
-161.48
-145.44
-125.40
-101.20
-75.28
-52.14
-34.69
-24.93
-24.14
-31.59
-45.73
-64.83
-86.87
-109.05
-128.07
-139.25
-138.63
-124.33
-96.11
-56.20
-9.34
37.71
76.97
100.58
103.36
84.22
47.35
2.89
-35.83
-56.18
-50.39
-17.95
34.61
96.50
155.65
201.57
228.25
234.17
222.14
198.35
170.73
147.11
133.32
131.16
132.95
129.47
112.35
78.81
32.77
-18.07
-65.69
-103.76
-128.78
-139.98
-138.34
-127.06
-110.57
-93.30
-78.59
-68.98
-64.26
-63.74
-66.61
-71.17
-75.24
-76.22
-72.02
-61.96
-47.23
-30.43
-14.93
-3.39
3.63
7.24
10.15
14.32
20.39
27.57
34.33
38.97
40.41
38.74
34.86
30.13
25.80
22.66
20.71
19.17
16.24
9.81
-1.84
-19.26
-41.46
-65.97
-89.54
-109.25
-123.19
-131.44
-135.72
-138.65
-142.72
-149.18
-157.27
-164.25
-166.43
-159.96
-143.00
-116.43
-83.93
-51.08
-23.71
-5.98
0.71
-2.25
-10.95
-21.59
-31.03
-37.14
-39.02
-37.60
-34.71
-30.86
-24.19
-7.85
24.20
73.25
134.20
197.29
248.93
278.06
280.12
251.78
200.05
140.52
92.61
71.54
82.84
121.27
173.92
224.57
257.69
264.02
242.15
198.44
143.56
88.62
42.84
7.47
-18.20
-35.35
-44.41
-46.51
-43.88
-40.42
-40.22
-46.45
-59.97
-79.29
-101.00
-120.81
-135.83
-142.78
-142.73
-140.03
-140.73
-145.24
-152.76
-159.32
-158.84
-147.06
-124.78
-98.50
-76.88
-65.94
-65.60
-70.38
-71.97
-64.04
-45.89
-22.63
-2.55
7.71
6.00
-3.03
-12.60
-16.53
-12.43
-2.69
7.29
11.96
8.97
0.09
-9.96
-16.85
-18.50
-15.59
-10.15
-3.08
6.72
22.50
46.43
78.19
114.03
148.24
175.11
190.81
194.61
188.23
174.93
158.37
141.87
127.58
116.28
107.41
97.79
85.84
71.84
57.69
45.30
35.12
25.78
15.13
1.90
-14.21
-31.24
-46.29
-56.97
-62.48
-63.81
-63.09
-62.69
-64.70
-68.28
-72.71
-77.30
-81.68
-85.94
-90.55
-96.14
-103.21
-112.04
-122.58
-134.31
-146.22
-156.86
-164.68
-168.34
-167.01
-160.58
-149.79
-136.05
-121.22
-106.96
-94.09
-82.17
-69.36
-53.02
-30.76
-1.79
32.22
67.21
98.06
120.34
131.92
133.60
128.42
120.28
112.49
107.06
104.51
104.59
106.62
109.72
112.66
113.84
111.58
104.75
93.44
78.86
62.67
46.08
29.18
11.12
-9.25
-32.51
-58.06
-84.19
-108.70
-129.60
-145.51
-155.53
-159.13
-156.00
-146.41
-131.56
-113.37
-94.29
-76.66
-61.94
-50.42
-41.52
-34.44
-28.78
-24.49
-20.59
-15.29
-6.29
8.11
27.84
50.48
71.79
86.99
92.36
87.31
73.32
53.18
30.65
10.77
-0.09
4.01
25.77
62.28
106.62
149.58
183.64
205.82
218.11
225.26
231.03
235.96
228.88
202.00
155.70
100.36
50.39
15.59
-2.87
-10.38
-14.25
-19.78
-27.54
-35.23
-40.03
-40.40
-36.44
-29.01
-19.41
-8.97
1.72
11.76
20.36
26.49
28.77
25.93
17.79
5.10
-10.42
-26.48
-40.54
-50.01
-52.64
-47.15
-33.97
-15.50
3.40
16.98
20.36
10.45
-12.10
-42.89
-75.15
-102.08
-118.31
-121.76
-112.47
-92.07
-64.87
-37.33
-17.09
-10.84
-22.09
-49.05
-86.08
-124.47
-149.80
-151.10
-126.43
-83.71
-34.79
7.78
42.11
66.81
79.13
76.41
57.12
24.36
-13.33
-44.98
-61.73
-60.18
-44.23
-21.10
3.21
24.95
43.18
59.21
72.20
79.60
79.47
71.31
56.97
39.61
20.46
-1.04
-25.67
-52.86
-79.60
-101.10
-113.36
-117.19
-112.46
-100.90
-85.37
-68.60
-52.65
-38.59
-26.59
-16.75
-9.11
-3.12
1.34
4.45
6.53
8.15
9.61
11.00
12.13
12.62
12.50
11.65
10.14
8.22
6.15
4.07
2.06
0.18
-1.56
-2.81
-3.45
-3.47
-3.09
-2.74
-2.90
-3.78
-5.15
-6.35
-6.38
-4.46
-0.21
6.23
14.27
23.06
31.73
39.52
45.92
50.71
53.86
55.53
56.08
55.97
55.68
55.58
55.78
56.03
55.78
54.40
51.52
47.36
42.71
38.73
36.40
36.12
37.52
39.73
41.88
43.54
44.87
46.37
48.43
50.97
53.40
54.96
55.11
53.83
51.43
48.30
44.58
39.98
34.10
26.89
18.96
11.49
5.62
1.80
-0.54
-2.77
-6.71
-14.01
-25.54
-41.13
-59.72
-79.73
-99.52
-117.69
-132.95
-144.69
-152.94
-158.03
-160.12
-158.98
-154.34
-146.30
-135.66
-123.29
-110.06
-96.51
-82.54
-67.83
-52.39
-36.52
-22.09
-10.78
-1.78
7.04
16.74
25.66
30.16
27.27
16.97
4.21
-7.01
-13.77
-16.08
-16.53
-18.31
-23.02
-29.55
-35.18
-37.02
-34.95
-29.26
-21.47
-13.54
-6.75
-1.14
4.72
12.29
22.75
37.07
56.45
81.49
111.90
146.29
181.81
214.74
240.05
253.69
255.36
249.45
243.00
242.67
251.76
268.50
287.10
298.07
291.87
263.36
213.37
147.84
76.16
8.68
-49.92
-91.34
-111.98
-116.65
-113.89
-110.61
-109.83
-112.14
-118.04
-128.91
-145.22
-166.47
-191.97
-216.16
-232.46
-236.85
-229.60
-214.44
-196.49
-178.86
-158.00
-133.35
-103.82
-68.91
-29.89
10.13
47.09
76.88
96.46
104.06
101.37
92.07
81.45
74.09
71.54
71.78
70.80
65.65
56.09
44.23
33.81
27.64
25.70
25.52
24.30
20.36
13.64
4.48
-7.73
-24.00
-44.46
-67.13
-87.67
-101.21
-104.69
-98.40
-86.10
-73.47
-65.45
-64.23
-68.79
-75.81
-81.46
-83.11
-80.17
-73.80
-65.83
-57.37
-48.12
-36.74
-21.80
-2.89
18.89
41.24
61.61
78.07
89.75
96.63
99.00
96.99
90.51
79.63
65.07
48.65
33.26
21.92
16.54
16.99
21.07
25.36
26.93
24.44
19.16
14.27
12.95
16.21
21.94
25.87
23.62
13.18
-4.70
-26.44
-47.35
-63.90
-75.10
-82.03
-86.24
-88.61
-88.92
-87.71
-86.50
-87.30
-91.33
-97.73
-102.72
-100.83
-87.61
-59.01
-18.84
22.18
52.98
69.42
75.12
76.69
80.01
84.50
87.57
87.18
84.48
83.94
91.08
107.14
129.95
153.26
168.60
169.02
151.36
118.07
76.39
35.31
1.58
-22.10
-37.10
-46.71
-53.23
-57.01
-56.50
-49.78
-36.65
-19.81
-3.98
5.95
7.12
0.22
-11.24
-22.55
-29.82
-31.58
-29.04
-24.99
-22.24
-22.30
-24.89
-28.65
-32.05
-34.04
-34.17
-32.37
-28.65
-23.25
-16.88
-11.02
-7.72
-8.93
-15.56
-26.94
-40.91
-54.65
-65.59
-71.94
-72.56
-66.57
-53.21
-32.10
-4.14
27.75
58.56
81.96
92.31
86.84
67.25
39.73
13.38
-2.65
-2.21
15.89
47.44
84.42
117.75
140.34
149.27
146.51
137.88
130.48
129.58
136.12
146.00
151.39
143.69
116.84
69.97
7.87
-60.50
-124.72
-175.83
-208.14
-219.86
-212.68
-191.34
-162.20
-132.06
-106.74
-89.76
-81.65
-79.97
-80.43
-78.83
-73.50
-65.55
-58.32
-55.45
-59.04
-68.96
-82.90
-97.16
-108.18
-114.07
-114.57
-111.05
-105.87
-101.73
-101.30
-106.15
-115.56
-120.30
-110.69
-80.33
-31.17
26.06
76.97
109.85
120.25
113.85
99.84
86.45
78.56
76.49
77.14
77.58
74.26
65.49
53.27
42.08
35.54
33.82
33.04
28.26
16.14
-3.96
-30.14
-58.79
-86.12
-108.22
-122.19
-126.36
-120.11
-104.26
-79.31
-49.91
-23.61
-7.17
-2.41
-5.58
-9.87
-9.05
-0.30
15.86
36.43
58.21
79.12
98.60
116.82
133.90
149.37
162.53
168.75
167.00
158.88
147.58
136.39
126.89
118.59
109.47
97.37
81.28
62.19
41.40
19.94
-1.43
-21.71
-38.95
-51.16
-57.88
-60.96
-63.81
-70.26
-81.95
-96.50
-108.13
-110.54
-99.60
-77.37
-51.71
-28.76
-9.70
8.25
29.26
53.63
80.29
106.68
130.09
148.96
163.61
174.71
182.10
184.64
180.72
169.57
151.47
128.04
101.83
76.56
55.72
41.45
33.75
30.30
27.42
21.21
9.15
-9.44
-32.38
-55.97
-76.41
-91.24
-100.44
-106.04
-111.24
-118.70
-129.96
-143.47
-155.93
-164.12
-167.37
-168.39
-171.84
-181.41
-190.77
-192.34
-179.77
-152.37
-115.32
-76.69
-43.89
-21.33
-10.07
-8.72
-16.62
-30.96
-48.31
-63.97
-73.05
-72.58
-62.93
-47.46
-30.46
-15.72
-3.74
6.14
15.41
25.09
34.88
43.66
50.47
55.01
56.88
55.80
51.87
46.74
44.08
48.93
65.93
97.24
141.05
191.70
241.45
282.83
309.75
318.07
305.71
272.97
223.30
163.03
100.40
43.26
-2.73
-36.38
-60.13
-77.70
-93.26
-108.84
-123.11
-132.20
-136.09
-134.69
-129.97
-125.37
-124.24
-128.57
-135.93
-143.15
-146.55
-143.36
-132.34
-114.93
-94.26
-73.75
-55.50
-39.43
-24.09
-8.04
8.37
22.81
31.39
31.25
22.78
10.27
0.35
-1.35
7.23
23.56
42.39
58.28
68.18
71.86
70.59
65.35
55.79
41.20
22.09
1.42
-16.18
-26.40
-27.55
-21.44
-12.47
-5.42
-3.15
-5.69
-10.86
-15.98
-19.43
-21.10
-21.93
-22.84
-24.01
-24.67
-23.64
-20.04
-14.12
-7.49
-2.69
-2.25
-7.54
-17.98
-31.06
-43.28
-51.69
-55.22
-55.04
-53.85
-54.41
-58.06
-64.07
-70.09
-73.17
-70.99
-62.52
-48.33
-30.38
-11.53
5.03
16.32
19.87
14.15
-0.94
-23.26
-48.17
-69.18
-79.96
-76.97
-61.27
-38.31
-15.53
0.77
7.75
5.86
-3.12
-18.34
-40.43
-69.88
-104.15
-136.09
-155.35
-152.70
-125.16
-78.68
-26.69
15.01
34.84
29.86
6.29
-23.89
-48.33
-58.92
-53.88
-36.84
-14.13
8.04
24.99
33.60
31.97
19.78
-0.69
-23.72
-41.03
-44.20
-27.91
7.74
56.95
110.22
157.63
191.69
208.92
209.83
197.60
176.86
152.77
130.72
115.98
113.08
124.75
150.95
188.56
231.65
272.64
304.05
320.32
319.03
301.01
269.06
226.36
175.50
118.57
58.32
-1.21
-54.96
-98.20
-128.21
-144.99
-150.73
-148.31
-140.08
-127.57
-111.92
-94.68
-77.59
-61.79
-46.71
-29.79
-7.05
25.38
69.72
125.22
187.73
250.16
303.81
340.74
356.37
351.16
330.44
302.46
275.10
253.09
237.10
224.75
213.00
200.17
186.45
173.16
161.32
150.65
139.59
126.09
108.62
86.98
62.55
37.58
14.40
-5.66
-22.71
-38.34
-55.20
-76.09
-103.53
-139.12
-183.26
-234.60
-289.48
-341.59
-382.58
-403.92
-400.06
-371.46
-325.86
-276.79
-239.55
-226.27
-242.23
-284.93
-346.02
-414.58
-480.21
-534.40
-570.75
-584.67
-573.60
-537.70
-480.77
-410.10
-335.11
-264.87
-205.44
-158.35
-120.55
-86.06
-48.55
-3.73
49.44
109.07
172.16
236.57
301.83
368.48
435.97
501.24
558.90
603.49
632.17
646.28
650.40
649.51
646.16
639.30
625.54
601.78
567.51
525.19
478.44
429.84
379.85
327.72
273.64
220.12
171.63
132.30
103.66
83.60
67.74
52.05
35.15
18.59
5.03
-4.25
-10.94
-19.02
-32.58
-53.40
-80.17
-109.38
-137.45
-162.31
-183.85
-203.11
-221.18
-238.46
-254.60
-269.46
-283.72
-298.97
-317.09
-338.75
-361.67
-379.93
-384.87
-368.27
-326.33
-262.60
-188.02
-117.42
-64.11
-35.01
-28.96
-38.65
-55.00
-71.34
-85.25
-97.90
-111.76
-128.67
-149.44
-174.97
-207.39
-250.01
-305.50
-373.33
-448.22
-520.67
-579.62
-616.48
-628.15
-617.75
-592.62
-560.76
-527.77
-495.45
-462.55
-426.66
-386.16
-340.92
-292.11
-241.37
-190.33
-140.40
-93.08
-50.07
-13.00
16.89
39.27
54.91
65.38
72.56
77.95
82.32
85.73
88.09
89.62
91.37
95.05
102.54
115.09
132.76
154.42
178.14
201.99
224.81
246.51
268.09
291.64
320.05
356.32
402.25
456.83
515.35
570.01
612.16
635.59
638.90
625.92
603.60
578.78
555.24
532.94
509.30
481.46
448.26
410.12
368.07
322.08
270.86
213.00
148.92
81.93
17.63
-37.64
-79.18
-105.29
-117.47
-119.68
-117.17
-115.42
-119.29
-132.17
-155.01
-185.73
-219.65
-251.02
-275.57
-292.76
-306.48
-323.68
-351.74
-395.38
-454.84
-525.23
-597.37
-659.89
-701.69
-714.82
-696.01
-647.34
-575.13
-487.84
-393.80
-299.67
-210.32
-129.47
-60.49
-6.06
32.59
56.73
70.27
78.67
87.03
98.75
115.28
136.55
161.43
187.64
211.35
227.25
229.95
216.35
187.87
150.89
114.79
88.64
77.84
82.94
100.84
127.50
160.13
197.38
237.54
276.34
306.43
319.09
307.99
272.34
217.75
154.44
92.98
40.14
-3.13
-40.72
-77.59
-115.67
-151.34
-176.14
-180.38
-157.72
-107.97
-36.97
46.04
132.08
215.12
292.40
362.69
423.89
471.79
501.11
507.73
490.88
453.45
400.40
336.40
264.37
185.95
102.73
18.91
-58.37
-121.37
-165.25
-190.55
-202.73
-209.09
-215.07
-223.24
-232.32
-239.04
-240.61
-235.86
-224.26
-204.50
-174.47
-133.11
-84.80
-37.66
-0.46
20.59
23.68
11.77
-9.36
-34.33
-60.45
-90.84
-129.07
-175.11
-224.02
-268.09
-300.29
-317.06
-319.63
-299.14
-256.71
-203.07
-151.88
-110.16
-76.43
-46.17
-17.75
3.79
14.51
9.85
-9.36
-35.24
-56.16
-62.77
-53.08
-32.29
-11.56
-1.60
-9.08
-30.29
-52.07
-58.31
-37.79
11.48
83.78
170.20
263.47
357.54
447.43
527.14
588.20
620.95
617.91
577.46
504.70
409.51
301.88
190.39
82.13
-16.24
-97.62
-155.63
-187.20
-195.74
-191.42
-187.65
-194.26
-213.58
-240.67
-267.82
-291.12
-312.57
-339.10
-377.00
-425.48
-473.00
-502.44
-499.37
-459.23
-390.23
-306.86
-224.15
-151.91
-92.15
-38.65
15.78
74.78
137.14
197.27
251.83
299.08
336.89
362.70
376.67
379.96
374.86
364.72
351.43
339.40
331.79
328.27
308.31
259.32
182.78
94.15
24.47
-25.39
-61.15
-85.77
-101.33
-103.54
-84.06
-37.83
32.37
115.73
194.08
252.12
280.80
277.61
247.54
202.62
155.94
116.99
90.26
73.30
54.94
28.07
-11.40
-62.20
-116.97
-164.24
-199.52
-221.38
-229.13
-223.20
-206.66
-185.84
-166.36
-150.35
-137.25
-125.90
-115.28
-106.35
-101.12
-100.72
-105.81
-115.51
-126.97
-136.61
-141.31
-138.48
-127.45
-110.69
-89.69
-66.56
-43.53
-22.64
-6.17
3.75
6.65
3.90
-1.75
-6.70
-8.59
-6.84
-1.88
5.79
16.76
32.89
55.61
83.76
113.11
137.09
146.86
137.68
110.70
72.91
34.27
3.22
-16.80
-28.01
-36.46
-48.22
-65.74
-87.22
-107.82
-122.51
-128.38
-125.54
-116.29
-103.89
-91.31
-80.54
-72.86
-68.98
-68.96
-71.94
-76.21
-79.59
-79.94
-75.77
-66.43
-52.52
-35.86
-19.01
-4.60
5.37
10.19
10.68
9.01
8.21
11.28
20.19
35.10
53.97
73.01
88.00
96.00
96.64
92.29
86.81
83.57
83.54
84.87
83.94
77.38
63.97
45.14
23.97
3.38
-15.36
-32.87
-50.61
-69.37
-88.13
-104.06
-113.42
-112.99
-101.28
-78.93
-48.44
-13.36
22.40
55.12
81.50
99.00
106.30
103.85
94.02
80.63
67.91
59.11
55.60
56.64
59.98
62.90
63.07
59.02
50.10
36.34
18.38
-2.35
-23.67
-42.94
-57.75
-66.62
-69.38
-67.13
-61.56
-54.42
-46.84
-39.28
-31.56
-23.22
-13.85
-3.41
7.68
18.63
28.51
36.68
42.99
47.94
52.42
57.34
63.20
69.91
76.73
82.57
86.22
86.60
82.89
74.61
61.67
44.42
23.76
1.13
-21.71
-42.96
-61.27
-75.96
-86.98
-94.65
-99.06
-99.77
-95.87
-86.53
-71.56
-51.92
-29.74
-7.80
11.17
25.36
34.44
39.76
43.89
49.74
59.47
73.64
90.96
108.79
123.95
133.54
135.50
128.72
113.02
89.21
59.15
25.82
-7.08
-35.82
-57.47
-70.62
-75.37
-73.07
-65.72
-55.48
-44.27
-33.73
-25.05
-18.94
-15.50
-14.28
-14.24
-13.96
-11.90
-6.73
2.15
14.46
28.94
43.65
56.46
65.57
69.91
69.15
63.62
54.01
41.18
26.03
9.53
-7.32
-23.51
-38.20
-50.88
-61.45
-70.15
-77.33
-83.16
-87.45
-89.64
-89.05
-85.20
-78.00
-67.72
-54.82
-39.72
-22.84
-4.63
14.41
33.88
53.83
74.89
97.85
122.72
147.85
169.61
183.23
184.38
170.83
143.23
104.83
60.20
14.04
-29.51
-66.84
-94.81
-111.11
-115.12
-108.89
-97.09
-85.64
-79.35
-79.72
-84.48
-88.97
-88.92
-82.91
-72.90
-62.64
-55.14
-50.76
-47.28
-41.69
-32.12
-18.83
-3.52
12.24
27.98
44.05
60.32
75.09
85.18
87.47
80.57
65.81
46.85
28.26
13.82
5.65
3.91
7.16
12.95
18.38
20.90
19.20
13.83
7.27
3.46
6.30
18.23
39.03
65.27
90.88
108.65
112.64
100.69
76.08
47.14
24.48
16.74
26.68
49.81
76.30
95.28
99.15
85.85
58.30
22.24
-15.98
-50.49
-75.99
-88.13
-84.29
-65.14
-35.54
-3.67
21.60
33.70
30.41
14.09
-10.03
-35.65
-57.37
-71.74
-77.59
-75.86
-69.06
-60.50
-53.21
-49.11
-47.93
-48.04
-47.51
-45.12
-40.90
-36.14
-32.77
-32.67
-37.33
-45.83
-56.26
-66.36
-74.20
-78.56
-79.00
-75.66
-69.26
-61.52
-52.17
-40.89
-27.38
-11.41
7.41
29.74
56.66
88.84
124.97
165.35
208.88
253.26
295.27
331.93
361.46
384.35
402.65
401.98
372.84
312.13
226.72
130.94
40.23
-34.66
-88.55
-116.60
-125.45
-120.95
-108.84
-94.21
-81.20
-72.08
-66.82
-64.46
-60.08
-48.66
-24.48
14.15
63.50
114.89
157.62
175.95
160.61
113.54
46.26
-24.25
-84.32
-127.82
-157.82
-178.94
-194.95
-207.44
-216.95
-222.39
-224.39
-225.26
-227.76
-233.42
-240.91
-246.39
-244.02
-228.73
-199.24
-158.77
-113.50
-69.86
-32.13
-1.58
22.02
39.24
49.90
53.04
48.02
36.24
21.23
7.57
-0.89
-2.55
1.88
10.37
20.83
31.64
42.16
52.16
60.96
67.20
69.01
65.09
55.53
42.09
27.36
13.80
2.79
-5.70
-12.72
-19.50
-26.77
-34.48
-42.01
-48.73
-54.18
-58.18
-60.64
-61.51
-60.97
-59.73
-59.15
-61.04
-66.97
-77.50
-91.58
-106.63
-119.47
-127.68
-130.83
-130.42
-128.70
-127.09
-125.13
-120.77
-111.77
-97.14
-77.83
-55.97
-33.48
-10.96
12.27
37.03
62.91
87.74
108.20
121.41
126.39
124.51
118.77
112.57
108.53
107.96
110.96
116.82
124.69
133.72
143.05
151.57
157.65
159.11
153.55
139.14
115.58
84.76
50.67
18.31
-7.82
-24.97
-32.67
-32.22
-25.50
-14.05
1.32
20.20
41.92
65.01
87.33
106.51
120.43
127.68
127.60
120.28
106.47
87.64
65.81
43.32
22.27
3.89
-11.87
-26.35
-41.55
-59.18
-79.83
-102.73
-126.02
-147.68
-166.19
-180.72
-190.83
-196.16
-196.31
-191.17
-181.35
-168.16
-153.18
-137.50
-121.28
-103.97
-85.12
-64.95
-44.62
-25.60
-8.82
5.86
19.51
33.25
47.43
61.25
73.27
82.25
87.84
90.65
91.64
91.33
89.30
84.35
75.25
61.54
43.92
24.18
4.50
-13.18
-27.71
-38.85
-47.12
-53.43
-58.76
-63.95
-69.51
-75.56
-81.95
-88.46
-95.08
-102.11
-109.90
-118.51
-127.34
-135.16
-140.55
-142.47
-140.64
-135.65
-128.63
-120.79
-113.01
-105.59
-98.08
-89.27
-77.40
-60.63
-37.87
-9.37
22.95
56.06
86.82
113.12
134.55
152.26
168.13
183.63
198.99
213.02
223.47
227.87
224.55
213.19
194.96
172.11
147.24
122.67
100.14
80.76
65.10
53.19
44.33
36.92
28.94
18.65
5.51
-9.38
-23.56
-34.16
-39.03
-37.59
-30.91
-21.17
-10.97
-2.80
1.41
0.39
-6.22
-17.70
-32.30
-47.57
-60.91
-70.37
-74.93
-74.63
-70.25
-62.83
-53.41
-42.69
-30.97
-18.29
-4.58
10.02
25.00
39.42
52.21
62.58
70.27
75.51
78.62
79.63
78.12
73.49
65.41
54.24
41.10
27.43
14.46
2.75
-7.85
-17.92
-28.01
-38.29
-48.58
-58.46
-67.49
-75.33
-81.69
-86.38
-89.30
-90.48
-90.02
-88.05
-84.64
-79.66
-72.88
-64.09
-53.19
-40.36
-26.03
-10.80
4.70
19.91
34.44
48.04
60.60
71.93
81.68
89.27
94.03
95.42
93.29
87.97
80.13
70.46
59.34
46.65
31.97
14.92
-4.36
-24.97
-45.21
-62.92
-75.94
-82.59
-82.02
-74.38
-60.70
-42.74
-22.61
-2.33
16.46
32.71
46.05
56.73
65.28
72.22
77.46
80.14
78.76
71.89
58.94
40.81
19.68
-1.84
-21.79
-39.60
-55.87
-71.58
-87.04
-101.45
-113.19
-120.66
-123.10
-120.77
-114.56
-105.31
-93.52
-79.44
-63.59
-47.15
-31.88
-19.63
-11.61
-7.86
-7.25
-7.84
-7.55
-4.86
0.57
7.63
13.94
16.67
13.60
4.27
-9.53
-24.15
-35.35
-39.99
-37.22
-28.87
-18.69
-11.08
-9.55
-15.78
-29.10
-46.66
-64.25
-77.40
-82.74
-78.86
-66.57
-48.35
-27.40
-6.61
12.02
27.37
38.92
46.42
49.80
49.46
46.49
42.58
39.60
39.01
41.36
46.19
52.39
58.65
64.01
67.96
70.35
71.20
70.52
68.51
65.77
63.43
62.98
65.71
72.10
81.39
91.73
100.65
106.02
106.78
103.36
97.48
91.46
87.43
86.58
89.01
93.86
99.83
105.49
109.48
110.52
107.53
99.92
88.11
73.75
59.50
48.28
42.11
41.27
44.07
47.48
48.24
43.97
33.70
17.82
-2.57
-26.24
-52.17
-79.36
-106.55
-131.98
-153.50
-169.06
-177.26
-177.75
-171.40
-160.14
-146.50
-133.04
-121.59
-112.89
-106.63
-101.90
-97.82
-94.01
-90.74
-88.53
-87.69
-88.05
-88.92
-89.52
-89.43
-88.72
-87.76
-86.96
-86.45
-86.06
-85.53
-84.73
-83.77
-82.86
-82.14
-81.35
-79.68
-75.90
-68.71
-57.28
-41.68
-23.02
-3.26
15.28
30.60
41.52
47.86
50.33
50.19
48.70
46.82
45.10
43.74
42.80
42.36
42.65
43.91
46.43
50.36
55.71
62.23
69.47
76.80
83.66
89.85
95.66
101.67
108.27
115.07
120.54
122.49
119.01
109.80
96.80
83.91
75.48
74.57
81.69
94.65
109.68
122.88
131.38
133.72
129.37
118.47
101.82
81.48
60.93
44.48
35.50
34.65
39.31
45.00
48.17
48.47
48.92
53.59
64.34
78.80
90.99
94.29
84.98
64.09
36.53
8.25
-16.63
-37.14
-54.70
-71.13
-86.87
-100.50
-109.54
-111.91
-107.08
-96.46
-82.90
-69.62
-59.09
-52.10
-47.94
-44.95
-41.62
-37.33
-32.56
-28.53
-26.38
-26.59
-28.67
-31.32
-32.89
-31.87
-27.41
-19.64
-9.76
0.16
7.71
10.93
8.96
2.40
-6.86
-16.30
-23.46
-26.61
-25.07
-19.49
-11.97
-5.75
-4.44
-10.84
-25.52
-46.34
-69.03
-88.93
-103.19
-112.07
-118.60
-126.63
-138.11
-151.17
-160.30
-158.41
-140.11
-104.41
-55.38
-0.78
50.74
92.48
121.05
136.31
139.99
134.34
121.62
104.33
85.65
69.15
57.55
51.16
47.18
40.66
26.75
3.30
-27.74
-60.76
-88.48
-104.55
-105.42
-91.00
-64.21
-29.81
6.59
39.55
64.71
79.51
83.77
79.44
69.83
58.25
46.98
36.89
27.66
18.52
8.96
-0.96
-10.61
-19.07
-25.42
-28.96
-29.41
-27.05
-22.78
-17.93
-13.99
-12.19
-13.05
-16.21
-20.62
-24.86
-27.72
-28.54
-27.41
-24.91
-21.93
-19.42
-18.21
-19.01
-22.10
-27.07
-32.54
-36.36
-36.07
-29.79
-17.05
0.88
21.28
40.78
56.36
66.03
69.02
65.63
56.87
44.20
29.23
13.58
-1.37
-14.65
-25.89
-35.33
-43.50
-50.98
-57.96
-64.10
-68.62
-70.64
-69.68
-65.90
-60.19
-53.79
-47.90
-43.22
-39.83
-37.33
-35.22
-33.13
-31.11
-29.46
-28.51
-28.43
-29.09
-30.09
-30.91
-31.05
-30.14
-28.06
-25.07
-21.89
-19.71
-19.95
-23.62
-30.60
-39.02
-45.24
-44.69
-33.32
-9.24
26.32
69.08
112.96
151.98
181.93
201.43
211.62
215.02
214.00
209.70
201.88
189.72
173.00
152.96
132.31
114.31
101.44
94.50
92.49
93.40
95.22
96.72
97.41
97.07
95.23
91.02
83.58
72.61
58.60
42.60
25.63
8.13
-10.21
-30.05
-51.70
-74.68
-97.71
-119.17
-137.74
-152.98
-165.43
-176.58
-188.39
-202.68
-220.15
-239.47
-256.91
-266.92
-263.99
-244.94
-210.68
-166.33
-119.52
-77.68
-45.57
-24.25
-11.76
-4.78
-0.24
3.79
8.27
13.71
20.56
29.25
39.78
51.32
62.26
70.63
74.87
74.62
70.97
66.09
62.30
61.07
62.23
64.17
64.56
61.49
54.29
43.66
31.27
19.14
8.96
1.86
-1.72
-1.86
0.85
5.57
11.25
16.86
21.49
24.42
25.10
23.20
18.62
11.62
2.76
-7.25
-17.82
-28.75
-40.24
-52.64
-66.11
-80.28
-94.19
-106.44
-115.64
-120.78
-121.60
-118.61
-113.02
-106.51
-100.84
-97.54
-97.47
-100.49
-105.48
-110.53
-113.61
-113.29
-109.22
-102.13
-93.29
-83.64
-73.27
-61.42
-47.13
-30.17
-11.71
5.84
19.72
27.99
30.36
28.36
24.65
22.04
22.56
26.95
34.75
44.70
55.24
65.01
73.06
79.05
83.13
85.93
88.29
91.02
94.68
99.46
105.06
110.84
115.98
119.69
121.41
121.03
118.95
116.17
114.22
114.76
119.12
127.70
139.58
152.66
164.23
171.87
174.22
171.33
164.61
156.26
148.53
143.13
140.39
138.74
134.67
123.56
101.36
66.62
21.83
-26.74
-70.61
-101.71
-114.76
-108.63
-86.20
-53.12
-16.09
18.67
46.43
64.41
71.83
69.61
59.91
45.44
28.89
12.50
-2.01
-13.56
-21.77
-27.11
-30.84
-34.76
-40.66
-49.66
-61.62
-75.17
-88.17
-98.61
-105.53
-109.37
-111.66
-114.19
-118.11
-123.50
-129.54
-135.21
-139.91
-143.75
-147.30
-151.25
-155.99
-161.32
-166.28
-168.95
-166.86
-157.76
-140.70
-116.74
-88.93
-61.31
-37.35
-18.58
-4.14
8.39
21.36
35.70
50.52
63.71
73.16
77.91
78.54
77.04
75.80
76.53
79.56
83.98
87.81
88.85
85.38
76.44
62.41
44.48
24.21
3.56
-14.49
-26.54
-29.58
-22.14
-5.71
16.46
39.82
59.78
73.13
79.63
80.91
79.44
77.31
75.10
73.94
74.94
78.55
84.30
91.94
101.04
111.43
123.04
134.76
146.47
157.70
167.06
165.50
146.43
108.08
55.15
3.32
-41.58
-77.18
-101.71
-114.14
-112.65
-96.20
-66.72
-29.22
9.47
41.63
63.03
72.61
71.40
61.60
46.64
30.03
14.85
3.00
-5.95
-12.70
-18.26
-23.68
-29.54
-35.30
-39.82
-42.03
-41.67
-39.93
-37.89
-36.44
-36.33
-38.11
-42.07
-48.44
-57.17
-67.77
-79.49
-90.85
-100.26
-106.76
-110.30
-111.51
-111.32
-110.42
-108.93
-106.53
-102.62
-96.76
-89.00
-79.80
-69.89
-59.88
-50.25
-41.34
-33.53
-27.24
-22.90
-20.77
-20.76
-22.46
-25.25
-28.55
-31.94
-35.20
-38.18
-40.64
-42.19
-42.27
-40.28
-35.69
-28.10
-17.45
-4.05
11.24
27.15
42.15
54.80
64.05
69.35
70.58
67.85
61.49
52.17
41.10
30.12
21.44
16.99
17.77
23.48
32.48
42.42
50.86
55.92
56.58
52.75
44.98
34.20
21.39
7.50
-6.60
-20.04
-32.01
-41.83
-49.25
-54.56
-58.63
-62.63
-67.54
-73.82
-81.23
-89.01
-96.17
-101.85
-105.51
-107.04
-106.64
-104.87
-102.48
-100.17
-98.31
-96.73
-94.63
-90.76
-83.80
-72.82
-57.74
-39.35
-19.06
1.70
21.73
40.28
56.81
70.80
81.41
87.43
87.69
81.93
71.43
58.86
47.47
39.95
37.80
40.97
47.91
56.09
62.98
66.60
65.49
58.74
46.41
30.57
15.30
5.00
2.76
9.41
23.52
41.85
60.79
77.82
93.05
108.14
123.54
137.12
145.14
144.31
133.00
111.78
82.48
45.63
4.77
-34.56
-64.18
-78.08
-70.98
-39.59
14.47
82.76
153.31
213.77
254.22
264.29
241.17
191.47
127.87
67.00
13.12
-33.99
-75.05
-109.66
-136.64
-154.59
-162.85
-162.55
-156.33
-147.77
-138.40
-128.10
-116.55
-103.84
-90.29
-76.58
-64.08
-54.57
-49.97
-50.18
-53.58
-57.92
-61.11
-61.45
-58.13
-51.66
-43.57
-35.98
-29.93
-25.55
-22.54
-20.68
-19.86
-20.10
-21.47
-23.95
-27.44
-31.51
-35.67
-39.49
-42.41
-43.35
-40.88
-33.66
-21.19
-4.25
15.28
34.90
52.23
65.60
74.33
78.48
78.58
75.26
69.25
61.37
52.59
43.92
36.19
29.76
24.38
19.20
13.09
5.08
-5.23
-17.40
-30.26
-42.23
-51.87
-58.26
-61.23
-61.24
-59.09
-55.68
-51.75
-47.79
-44.11
-40.90
-38.21
-35.98
-33.96
-31.71
-28.69
-24.45
-18.80
-11.93
-4.38
3.06
9.54
14.33
17.02
17.60
16.62
14.97
13.63
13.37
14.33
16.05
17.70
18.53
18.29
17.35
16.44
16.22
16.84
17.80
18.09
16.52
12.17
4.65
-5.64
-17.49
-28.96
-37.83
-42.18
-41.07
-34.84
-24.98
-13.51
-2.18
8.08
17.27
26.09
35.35
45.46
56.25
66.94
76.51
84.04
89.07
91.54
91.75
90.06
86.61
81.34
74.13
64.98
54.22
42.42
30.18
17.84
5.51
-6.87
-19.12
-30.70
-40.73
-48.24
-52.57
-53.67
-52.09
-48.75
-44.53
-39.98
-35.26
-30.29
-25.12
-20.01
-15.49
-12.01
-9.70
-8.29
-7.24
-6.09
-4.72
-3.38
-2.58
-2.79
-4.16
-6.53
-9.40
-12.20
-14.33
-15.42
-15.32
-14.17
-12.42
-10.65
-9.52
-9.54
-10.89
-13.30
-16.05
-18.19
-18.81
-17.49
-14.53
-10.83
-7.55
-5.57
-5.01
-5.25
-5.13
-3.42
0.64
7.18
15.66
25.12
34.40
42.31
47.78
49.90
48.10
42.17
32.42
19.62
4.93
-10.28
-24.64
-37.05
-46.91
-54.21
-59.57
-64.00
-68.48
-73.54
-78.90
-83.45
-85.56
-83.72
-77.04
-65.59
-50.33
-32.87
-15.17
0.64
12.45
18.54
18.10
11.92
2.45
-6.69
-11.88
-10.83
-3.32
8.94
23.32
37.44
50.00
60.86
70.43
78.85
85.64
89.76
90.38
87.57
82.71
78.18
76.60
79.83
88.33
101.06
115.92
130.46
142.58
150.81
154.37
153.02
146.95
136.62
122.70
106.06
87.69
68.79
50.71
34.93
22.79
15.27
12.74
14.97
21.21
30.34
40.97
51.40
59.64
63.60
61.50
52.41
36.65
15.81
-7.63
-31.01
-52.28
-70.48
-85.81
-99.28
-111.92
-124.18
-135.51
-144.56
-149.71
-149.66
-143.85
-132.52
-116.64
-97.69
-77.61
-58.54
-42.50
-30.83
-23.75
-20.15
-18.07
-15.43
-10.95
-4.64
2.28
7.96
10.72
9.77
5.41
-1.15
-8.38
-15.04
-20.57
-25.17
-29.45
-33.93
-38.69
-43.29
-46.98
-49.09
-49.32
-47.84
-45.20
-42.07
-39.13
-36.93
-35.90
-36.37
-38.63
-42.98
-49.57
-58.20
-68.05
-77.59
-84.72
-87.39
-84.26
-75.29
-61.81
-46.01
-30.17
-15.90
-3.89
6.02
14.33
21.51
27.70
32.78
36.56
38.95
40.03
40.07
39.36
38.06
36.09
33.09
28.57
22.16
13.87
4.18
-5.99
-15.55
-23.55
-29.51
-33.52
-36.17
-38.28
-40.47
-42.82
-44.64
-44.68
-41.58
-34.58
-23.99
-11.15
2.02
13.82
23.45
31.09
37.45
43.04
47.58
50.11
49.59
45.77
39.81
34.25
32.25
36.69
49.18
69.56
95.69
123.76
148.63
164.70
167.24
154.06
126.97
91.98
57.74
32.60
21.48
24.39
37.11
53.70
69.48
82.52
93.30
103.00
111.79
118.47
121.42
120.05
115.65
110.72
107.38
105.79
103.84
98.10
85.55
65.18
38.56
9.31
-18.31
-40.88
-56.74
-66.18
-70.93
-73.27
-75.07
-77.41
-80.39
-83.56
-86.36
-88.50
-90.14
-91.72
-93.71
-96.35
-99.60
-103.22
-106.90
-110.30
-113.04
-114.56
-114.13
-110.87
-104.05
-93.44
-79.54
-63.70
-47.95
-34.44
-24.91
-20.22
-20.14
-23.62
-29.14
-35.21
-40.70
-45.30
-49.70
-55.62
-65.28
-80.32
-100.59
-123.40
-143.93
-156.76
-158.07
-147.24
-127.33
-103.78
-82.09
-65.64
-54.73
-47.08
-39.51
-29.65
-16.84
-1.95
13.75
29.58
45.88
63.42
82.51
102.18
120.33
134.51
143.10
146.00
144.47
140.31
134.91
128.72
121.46
112.67
102.36
91.25
80.53
71.37
64.31
58.98
54.09
47.98
39.50
28.75
17.40
8.32
4.56
8.21
19.56
36.90
56.98
75.97
90.34
97.57
96.52
87.43
71.77
51.74
29.72
7.60
-13.54
-33.42
-52.14
-69.62
-85.38
-98.60
-108.49
-114.74
-117.69
-118.17
-117.15
-115.37
-113.18
-110.65
-107.79
-104.66
-101.45
-98.25
-94.89
-90.75
-84.91
-76.48
-65.10
-51.26
-36.36
-22.46
-11.54
-4.82
-2.33
-2.85
-4.32
-4.62
-2.12
3.89
13.17
24.87
37.75
50.61
62.37
72.25
79.70
84.40
86.19
84.99
80.81
73.77
64.07
52.01
38.00
22.59
6.51
-9.37
-24.12
-36.96
-47.41
-55.37
-61.09
-65.04
-67.68
-69.23
-69.53
-68.22
-64.80
-59.09
-51.34
-42.32
-33.10
-24.71
-17.79
-12.36
-7.92
-3.70
0.96
6.36
12.39
18.61
24.58
29.89
34.37
37.87
40.25
41.29
40.84
38.88
35.69
31.82
27.95
24.61
22.06
20.24
18.88
17.71
16.68
15.88
15.49
15.54
15.85
16.10
15.99
15.40
14.39
13.10
11.66
10.15
8.67
7.44
6.86
7.44
9.62
13.57
19.15
25.90
33.17
40.25
46.52
51.45
54.72
56.26
56.26
55.10
53.19
50.86
48.23
45.27
41.77
37.50
32.19
25.58
17.46
7.71
-3.55
-15.91
-28.68
-41.02
-52.15
-61.50
-68.82
-74.09
-77.47
-79.21
-79.54
-78.65
-76.63
-73.43
-68.86
-62.74
-54.97
-45.72
-35.46
-24.80
-14.39
-4.72
3.90
11.32
17.48
22.38
26.08
28.76
30.77
32.48
34.24
36.19
38.24
40.03
41.09
40.94
39.27
36.03
31.47
26.14
20.73
15.72
11.22
6.78
1.63
-4.89
-12.93
-21.84
-30.31
-36.92
-40.67
-41.39
-39.57
-35.97
-31.14
-25.12
-17.68
-8.75
1.19
11.02
19.23
24.39
25.64
22.91
16.83
8.48
-0.86
-9.94
-17.47
-22.26
-23.34
-20.24
-13.11
-2.71
9.78
23.12
36.17
47.98
57.57
63.84
65.72
62.52
54.40
42.56
29.07
16.24
5.96
-0.81
-4.15
-4.93
-4.45
-3.99
-4.52
-6.54
-10.06
-14.70
-19.83
-24.81
-29.22
-32.98
-36.24
-39.10
-41.28
-42.00
-40.12
-34.74
-25.80
-14.49
-3.14
5.48
9.15
7.13
0.45
-8.44
-16.65
-21.79
-22.71
-19.58
-13.44
-5.62
2.74
10.82
17.96
23.52
26.85
27.48
25.53
21.80
17.75
15.01
14.83
17.66
23.02
29.86
36.96
43.36
48.53
52.31
54.64
55.37
54.23
50.84
44.92
36.38
25.41
12.50
-1.63
-16.06
-29.93
-42.53
-53.60
-63.28
-72.00
-80.10
-87.35
-92.63
-94.04
-89.53
-77.80
-59.10
-35.51
-10.41
12.64
31.09
44.07
52.27
57.15
60.05
61.69
62.12
61.15
58.77
55.24
50.95
46.27
41.52
37.14
33.76
32.12
32.79
35.75
40.38
45.70
50.76
55.04
58.46
61.12
63.02
63.93
63.60
62.03
59.68
57.35
55.81
55.43
56.06
57.09
57.75
57.40
55.62
52.19
47.04
40.15
31.56
21.39
9.94
-2.29
-14.58
-26.09
-35.95
-43.46
-48.38
-51.02
-52.24
-53.21
-54.99
-58.22
-62.91
-68.51
-74.10
-78.84
-82.24
-84.34
-85.65
-86.92
-88.78
-91.45
-94.70
-97.81
-99.91
-100.12
-97.90
-93.19
-86.45
-78.59
-70.70
-63.73
-58.20
-54.06
-50.73
-47.45
-43.61
-38.96
-33.55
-27.58
-21.12
-14.02
-6.05
2.86
12.39
21.87
30.46
37.49
42.79
46.74
50.04
53.44
57.40
61.98
66.82
71.43
75.34
78.34
80.51
82.19
83.84
85.85
88.38
91.17
93.57
94.73
93.84
90.46
84.67
77.06
68.54
59.98
51.96
44.67
38.03
31.87
26.16
20.95
16.21
11.63
6.60
0.41
-7.30
-16.29
-25.72
-34.60
-42.29
-48.76
-54.36
-59.40
-63.71
-66.75
-68.09
-67.89
-67.04
-66.69
-67.42
-68.64
-68.68
-65.53
-57.87
-45.73
-30.54
-14.54
0.08
11.84
20.16
25.29
28.00
29.28
30.18
31.48
33.54
36.03
38.00
38.19
35.52
29.61
21.09
11.57
3.13
-2.26
-3.42
-0.29
6.18
14.53
23.55
32.81
42.78
54.38
68.29
84.29
101.24
117.53
131.70
142.67
149.53
151.44
147.79
138.92
126.68
114.29
105.24
101.70
103.40
107.80
111.44
111.78
108.39
102.74
96.91
92.06
87.75
82.31
73.90
61.54
45.42
26.60
6.34
-14.29
-34.64
-54.32
-72.84
-89.52
-103.62
-114.71
-122.97
-129.29
-134.98
-141.30
-148.89
-157.53
-166.07
-172.83
-176.08
-174.60
-168.17
-157.65
-144.82
-131.88
-120.78
-112.77
-108.14
-106.36
-106.31
-106.67
-106.19
-104.02
-99.86
-94.15
-88.03
-83.10
-81.02
-82.95
-89.05
-98.32
-108.76
-117.90
-123.52
-124.24
-119.89
-111.44
-100.55
-89.01
-78.21
-68.84
-60.93
-54.06
-47.74
-41.64
-35.78
-30.37
-25.67
-21.71
-18.18
-14.40
-9.56
-2.93
5.89
16.86
29.58
43.32
57.23
70.47
82.49
93.08
102.43
110.92
118.87
126.34
132.96
138.12
141.29
142.11
140.46
136.33
129.80
121.21
111.40
101.76
93.95
89.16
87.37
87.01
85.38
79.65
68.07
50.74
29.56
7.43
-12.94
-29.97
-43.47
-54.17
-62.96
-70.35
-76.26
-80.42
-82.73
-83.58
-83.67
-83.65
-83.77
-83.84
-83.42
-82.16
-80.01
-77.26
-74.39
-71.91
-70.29
-69.85
-70.64
-72.29
-74.07
-74.96
-74.06
-70.91
-65.69
-58.98
-51.42
-43.38
-34.99
-26.51
-18.59
-12.43
-9.18
-9.27
-11.68
-14.09
-13.48
-7.25
5.87
25.45
49.62
75.78
101.21
123.55
140.99
152.39
157.37
156.40
150.56
141.19
129.40
115.78
100.36
82.92
63.47
42.47
20.87
-0.09
-19.32
-36.07
-50.06
-61.36
-70.23
-76.99
-81.98
-85.61
-88.39
-90.87
-93.43
-96.04
-98.13
-98.74
-96.89
-92.08
-84.58
-75.19
-64.82
-54.02
-42.79
-30.88
-18.24
-5.36
6.78
17.09
24.97
30.60
34.79
38.65
43.05
48.32
54.23
60.20
65.49
69.39
71.20
70.36
66.46
59.44
49.77
38.36
26.32
14.60
3.83
-5.67
-13.46
-18.85
-20.81
-18.40
-11.18
0.45
15.46
32.44
50.01
66.89
81.82
93.49
100.62
102.33
98.40
89.42
76.43
60.60
42.93
24.30
5.66
-11.95
-27.47
-40.25
-50.27
-58.12
-64.64
-70.53
-75.97
-80.68
-84.14
-85.91
-85.85
-84.02
-80.69
-76.15
-70.73
-64.81
-58.73
-52.68
-46.52
-39.86
-32.16
-23.06
-12.55
-0.94
11.26
23.53
35.40
46.39
55.82
62.95
67.15
68.33
67.27
65.51
64.92
66.90
71.75
78.39
84.75
88.55
88.25
83.59
75.58
65.99
56.51
48.17
41.14
35.02
29.18
23.12
16.65
9.76
2.63
-4.48
-11.21
-17.05
-21.43
-23.91
-24.28
-22.69
-19.68
-16.07
-12.89
-11.13
-11.56
-14.44
-19.46
-25.80
-32.59
-39.37
-46.34
-54.29
-63.95
-75.43
-87.79
-99.26
-107.79
-112.00
-111.62
-107.49
-100.96
-93.24
-85.04
-76.56
-67.80
-58.71
-49.33
-39.78
-30.00
-19.83
-9.08
2.31
14.05
25.54
36.40
46.23
54.56
60.85
64.65
65.92
65.24
63.69
62.36
62.96
66.44
72.67
80.41
87.88
93.64
97.24
99.24
100.73
104.26
111.74
123.59
138.37
153.34
165.68
173.67
177.05
176.84
176.87
181.36
193.76
215.48
245.32
279.82
314.07
342.77
349.30
322.39
259.81
171.22
74.22
-14.39
-85.09
-136.36
-171.51
-194.99
-208.41
-212.18
-207.02
-195.22
-180.54
-166.83
-156.54
-150.34
-147.57
-145.56
-142.00
-136.09
-128.78
-122.15
-117.79
-115.80
-114.85
-113.18
-108.58
-99.87
-87.02
-70.68
-51.61
-30.21
-6.74
17.60
39.98
56.65
63.63
58.19
39.94
10.84
-25.35
-63.51
-98.80
-127.49
-146.98
-155.79
-153.59
-141.66
-123.37
-103.74
-87.68
-77.97
-73.68
-70.84
-64.91
-53.60
-38.25
-23.28
-13.54
-11.20
-14.95
-21.10
-26.08
-28.47
-28.55
-26.53
-21.14
-9.34
12.69
46.75
91.22
140.57
184.23
210.49
211.98
188.72
147.15
97.09
47.51
4.65
-28.85
-53.39
-70.82
-82.66
-89.38
-92.75
-91.61
-85.51
-75.37
-63.24
-51.33
-41.09
-32.58
-25.16
-18.26
-11.50
-5.41
-0.74
1.92
3.43
4.78
7.31
12.06
19.37
28.91
39.30
48.76
55.60
58.73
57.79
53.39
46.71
38.88
30.77
22.47
13.68
4.11
-6.16
-16.63
-26.51
-35.13
-42.32
-48.27
-53.51
-58.41
-63.02
-67.14
-70.63
-73.48
-75.76
-77.30
-77.41
-74.79
-67.72
-54.74
-35.36
-10.90
15.41
39.23
56.61
65.56
66.88
63.63
59.63
57.69
58.70
61.91
66.15
70.91
76.61
83.71
91.59
97.96
99.54
93.50
79.01
57.88
33.94
11.70
-5.16
-14.77
-17.28
-14.50
-9.15
-4.05
-1.39
-2.33
-6.83
-13.74
-21.40
-28.19
-33.19
-36.45
-38.79
-41.34
-44.97
-49.83
-55.16
-59.56
-61.53
-60.24
-56.04
-50.57
-46.33
-45.73
-50.11
-59.19
-70.99
-82.47
-90.48
-92.68
-88.26
-78.03
-64.04
-48.79
-34.47
-22.40
-12.99
-6.11
-1.71
-0.20
-2.26
-8.28
-17.58
-28.01
-36.33
-39.13
-33.98
-20.28
0.64
26.03
52.73
77.93
99.68
116.89
129.08
136.22
138.80
138.05
135.94
134.78
136.32
140.80
146.42
149.86
147.40
136.47
116.59
89.47
58.25
26.42
-3.14
-28.59
-49.05
-64.42
-75.08
-81.78
-85.49
-87.08
-87.11
-85.61
-82.22
-76.46
-68.14
-57.56
-45.49
-32.95
-20.99
-10.52
-2.24
3.34
6.01
5.91
3.59
-0.03
-3.85
-6.85
-8.39
-8.33
-7.03
-5.26
-3.80
-3.26
-3.80
-5.13
-6.70
-7.88
-8.25
-7.62
-6.06
-3.75
-0.87
2.32
5.33
7.51
8.29
7.50
5.62
3.46
1.76
0.61
-0.58
-2.61
-5.78
-9.25
-11.11
-9.06
-1.40
12.11
30.00
49.47
67.20
80.25
86.82
86.67
81.26
73.10
64.95
58.71
54.82
52.40
49.87
45.51
37.79
25.30
6.81
-18.21
-48.94
-82.78
-115.45
-142.09
-158.40
-161.92
-152.26
-131.03
-101.27
-66.85
-32.32
-2.68
17.06
22.82
12.98
-10.11
-39.49
-64.72
-74.81
-62.38
-26.91
24.13
77.90
121.19
145.62
150.54
142.00
129.03
119.03
115.10
116.10
118.68
119.43
115.88
106.30
89.42
65.14
35.64
6.36
-14.93
-21.04
-8.76
18.86
53.20
83.23
99.78
98.39
79.73
47.87
7.71
-36.83
-83.29
-130.11
-176.03
-219.81
-260.55
-297.87
-331.74
-362.15
-388.32
-408.12
-417.93
-413.21
-389.92
-346.39
-284.84
-211.66
-136.16
-67.70
-12.63
27.68
56.68
80.45
104.61
131.64
160.09
185.86
204.64
214.29
215.78
212.41
208.01
205.22
204.39
203.80
200.64
192.40
177.83
157.47
133.26
107.96
84.32
64.11
47.38
32.32
15.85
-4.69
-29.94
-57.67
-82.78
-98.84
-100.49
-85.40
-55.14
-14.69
29.42
70.56
102.56
121.04
124.17
113.30
92.66
68.12
45.40
28.36
17.88
11.00
3.22
-9.06
-26.96
-48.85
-71.49
-91.85
-107.92
-119.30
-128.40
-138.48
-152.36
-171.00
-193.27
-216.36
-236.71
-250.88
-248.86
-224.45
-177.69
-116.08
-50.47
10.26
61.49
101.64
130.34
148.50
156.41
154.57
144.62
129.46
112.40
96.46
84.32
78.45
80.31
89.09
101.72
113.49
120.38
120.93
117.10
113.34
114.21
121.73
133.09
142.24
142.71
130.62
105.78
71.06
30.78
-10.54
-48.82
-80.76
-103.63
-115.63
-116.64
-108.97
-97.09
-86.13
-79.83
-78.92
-81.29
-83.15
-80.98
-72.63
-57.88
-38.07
-15.59
6.80
26.49
41.45
50.65
54.14
52.96
48.55
42.16
34.38
25.31
14.98
3.75
-7.36
-16.65
-21.89
-20.88
-12.18
3.91
25.28
48.36
69.07
84.05
91.65
92.52
89.14
85.22
84.13
88.70
100.63
119.52
142.37
163.48
175.88
173.30
152.73
115.11
66.69
17.39
-22.47
-45.73
-51.13
-43.26
-31.10
-24.39
-31.42
-54.49
-89.40
-128.04
-161.99
-186.66
-202.22
-213.53
-226.51
-246.57
-273.35
-300.33
-318.28
-319.26
-300.78
-265.79
-221.91
-166.20
-102.79
-41.60
5.13
29.68
34.53
25.46
15.10
12.71
21.28
35.27
45.59
47.53
38.50
21.91
5.94
0.45
10.93
35.98
66.50
91.81
105.13
106.15
100.91
96.94
98.92
105.05
108.49
100.49
76.05
36.71
-10.74
-57.56
-97.64
-129.55
-156.51
-183.19
-212.39
-242.93
-269.63
-285.44
-283.63
-260.18
-215.42
-154.85
-88.20
-26.38
21.27
49.82
60.08
57.72
50.49
45.11
45.69
54.10
72.30
101.46
140.42
184.13
223.87
249.39
253.02
234.31
201.73
171.92
161.26
178.44
220.35
274.12
323.41
355.75
367.36
353.40
318.01
270.56
220.61
173.08
128.44
86.48
49.60
22.26
7.49
5.75
12.59
20.42
22.65
17.86
8.25
-1.91
-8.66
-10.46
-7.47
-2.68
-1.09
-6.67
-19.04
-35.62
-53.45
-69.99
-84.81
-96.14
-105.23
-116.38
-134.21
-159.51
-192.14
-231.29
-273.20
-311.43
-337.98
-346.96
-338.77
-319.30
-294.82
-273.38
-262.33
-263.74
-274.75
-289.72
-291.35
-267.52
-232.75
-192.24
-138.00
-66.75
21.16
121.32
226.83
330.80
426.68
510.34
581.98
638.66
673.30
679.21
653.40
598.77
523.45
436.61
346.23
259.58
178.30
100.43
25.04
-46.39
-110.39
-163.60
-205.19
-236.76
-259.90
-278.69
-297.05
-317.12
-339.63
-365.00
-393.39
-424.16
-454.04
-476.09
-484.19
-473.57
-442.81
-395.04
-337.19
-277.43
-222.60
-176.33
-128.23
-75.28
-21.01
26.48
60.37
79.13
86.30
87.35
87.02
87.91
88.69
87.80
84.74
80.45
76.15
74.06
75.48
80.57
88.60
96.97
104.09
109.43
113.26
115.99
117.69
117.99
116.87
115.16
111.89
108.16
106.05
107.98
115.89
130.50
150.55
172.65
191.39
199.95
192.80
167.33
125.18
72.19
16.91
-31.91
-67.35
-85.91
-87.86
-76.31
-56.74
-35.94
-20.85
-17.00
-26.84
-48.49
-76.01
-101.06
-115.44
-114.11
-96.53
-66.52
-30.56
4.38
32.64
50.67
56.98
51.90
37.07
15.24
-10.23
-35.94
-59.16
-77.86
-91.18
-99.23
-102.92
-103.55
-102.30
-99.76
-95.78
-89.64
-79.87
-65.34
-46.04
-23.34
0.10
21.38
38.23
49.51
55.23
57.27
58.07
59.83
63.73
69.55
76.18
82.32
86.82
89.03
90.52
94.24
103.58
121.38
148.66
184.64
227.01
272.35
308.07
322.24
307.44
265.44
206.82
144.83
89.80
46.63
15.43
-6.93
-23.69
-36.74
-48.89
-61.84
-76.55
-91.73
-103.79
-108.09
-101.62
-84.08
-58.95
-31.79
-8.05
6.63
9.60
1.90
-12.89
-30.99
-49.12
-65.32
-78.10
-86.58
-92.32
-98.57
-109.92
-131.04
-165.50
-213.59
-271.28
-329.65
-368.42
-370.48
-331.04
-261.51
-182.13
-110.22
-53.24
-12.78
17.83
42.19
58.05
61.28
50.98
32.63
16.65
13.81
29.50
59.28
93.00
118.94
130.81
131.07
129.03
134.71
152.56
175.85
192.47
191.06
167.41
126.40
78.52
33.98
-0.82
-23.76
-36.26
-41.22
-42.02
-42.90
-47.48
-58.03
-74.71
-95.80
-118.05
-138.45
-154.94
-166.24
-168.22
-159.53
-141.25
-116.52
-89.55
-64.25
-41.19
-19.50
2.38
25.51
48.98
70.27
86.51
93.21
89.26
77.15
61.84
48.73
41.23
39.06
39.36
38.70
35.22
30.17
26.66
27.61
34.10
44.67
55.98
64.85
69.72
70.86
69.95
68.45
66.63
63.91
59.50
53.01
44.94
36.47
28.90
23.38
20.25
18.97
18.41
17.38
15.13
11.60
7.40
3.31
0.01
-2.37
-4.26
-6.28
-8.88
-12.02
-15.07
-17.12
-17.44
-15.81
-12.70
-9.03
-5.70
-3.17
-1.30
0.51
2.88
6.08
9.91
13.86
17.43
20.27
22.18
22.96
22.31
19.90
15.59
9.62
2.67
-4.41
-10.84
-16.13
-20.16
-23.15
-25.58
-28.05
-31.01
-34.47
-37.98
-40.68
-41.67
-40.41
-36.80
-31.09
-23.73
-15.34
-6.92
-0.08
3.62
3.67
1.64
1.14
6.28
19.31
39.08
61.17
79.79
90.52
92.14
86.57
77.16
66.51
55.46
43.79
31.44
19.32
9.29
3.29
1.54
3.27
7.30
10.99
11.03
4.84
-8.97
-30.11
-56.61
-85.14
-111.95
-134.24
-150.57
-160.53
-164.55
-163.58
-158.68
-151.05
-141.44
-130.31
-118.13
-104.96
-90.47
-74.61
-58.17
-42.55
-29.63
-20.19
-14.01
-10.04
-6.13
0.35
11.24
26.88
46.22
66.79
86.51
103.49
112.64
110.20
96.68
77.22
58.89
49.84
49.40
54.10
60.45
66.58
70.39
72.33
73.20
72.95
70.32
63.12
50.62
33.84
15.38
-0.81
-10.67
-12.10
-5.85
5.04
16.43
25.70
32.13
36.73
41.69
49.58
62.09
79.47
100.32
121.43
138.73
147.76
145.18
130.46
106.91
80.67
58.54
45.37
42.17
46.31
52.82
56.51
53.88
43.85
27.35
6.25
-17.47
-42.26
-66.89
-90.30
-111.36
-128.94
-141.85
-149.04
-149.55
-142.32
-126.31
-100.83
-66.25
-24.69
19.75
61.74
96.23
119.92
132.05
133.94
127.84
115.64
98.55
77.47
53.99
30.69
10.69
-3.59
-11.54
-14.71
-15.96
-18.08
-22.53
-29.06
-36.17
-42.23
-46.36
-48.80
-50.69
-53.34
-57.53
-63.13
-69.23
-74.61
-78.23
-79.56
-78.66
-75.90
-71.78
-66.68
-60.87
-54.46
-47.43
-39.72
-31.37
-22.70
-14.47
-7.74
-3.59
-2.55
-4.24
-7.34
-10.07
-10.99
-9.59
-6.52
-3.16
-0.93
-0.64
-2.28
-5.29
-9.01
-13.15
-17.87
-23.59
-30.49
-38.33
-46.45
-54.07
-60.72
-66.37
-71.32
-75.87
-79.95
-83.09
-84.74
-84.68
-83.38
-81.93
-81.55
-82.99
-86.07
-89.69
-92.29
-92.49
-89.59
-83.69
-75.42
-65.62
-54.89
-43.64
-32.16
-21.05
-11.29
-4.20
-0.94
-1.89
-6.25
-11.95
-16.22
-16.40
-10.91
0.11
14.62
29.24
40.42
45.68
44.51
38.56
30.98
25.19
23.63
26.95
33.93
42.23
49.28
53.26
53.60
50.79
46.06
40.69
35.44
30.47
25.44
20.00
14.12
8.16
2.71
-1.70
-4.71
-6.34
-6.63
-5.40
-2.07
3.96
12.65
22.98
33.11
41.34
46.48
48.48
48.48
48.00
47.53
45.76
40.13
28.78
12.71
-4.23
-16.25
-17.82
-5.86
18.70
51.31
85.94
117.64
144.32
165.47
180.79
189.15
188.61
177.29
154.94
124.82
91.21
63.02
48.68
50.12
60.25
67.77
64.12
46.23
16.56
-18.34
-50.63
-74.95
-89.82
-96.54
-97.04
-92.65
-84.03
-71.40
-55.16
-36.27
-17.14
-1.20
8.32
9.85
4.03
-6.59
-18.24
-27.33
-31.79
-32.37
-32.57
-36.51
-46.46
-61.68
-79.20
-95.65
-109.35
-121.07
-133.30
-148.61
-167.22
-185.57
-197.35
-196.30
-178.84
-145.63
-101.77
-55.40
-16.54
5.56
5.50
-16.66
-55.84
-103.37
-148.72
-181.57
-193.13
-179.55
-142.97
-90.83
-34.64
12.89
42.28
51.04
45.35
41.06
53.61
87.04
133.15
178.77
213.48
233.27
240.38
234.97
219.91
197.19
168.07
135.47
104.78
82.41
73.31
78.45
93.69
111.52
122.03
116.56
91.66
50.69
2.63
-41.24
-71.27
-82.45
-75.01
-54.46
-28.75
-5.08
11.91
19.77
16.78
0.83
-30.44
-77.84
-139.16
-207.68
-272.32
-320.01
-339.54
-325.17
-278.75
-209.70
-132.51
-63.13
-14.14
8.95
9.14
-4.05
-18.81
-25.85
-21.58
-7.98
9.97
27.68
43.27
57.81
73.38
90.92
109.19
125.06
135.12
137.32
131.64
120.32
107.97
100.53
103.88
121.53
152.60
191.53
229.84
259.09
273.95
273.87
262.44
245.90
230.73
221.36
218.99
221.46
223.77
219.26
201.93
168.26
119.26
60.86
2.18
-47.13
-79.83
-93.14
-91.46
-81.79
-72.82
-70.40
-75.14
-84.07
-93.99
-103.22
-111.40
-118.40
-123.18
-124.52
-121.74
-115.70
-108.65
-103.43
-102.13
-105.03
-110.78
-116.68
-120.01
-118.72
-112.09
-101.07
-87.92
-75.33
-64.93
-57.94
-54.40
-53.40
-53.44
-53.06
-51.52
-49.04
-46.45
-44.73
-44.57
-45.80
-47.44
-47.97
-45.93
-40.55
-32.12
-21.80
-11.24
-2.14
4.39
7.95
8.80
7.61
5.11
1.94
-1.41
-4.55
-7.29
-9.50
-11.07
-11.80
-11.31
-9.04
-4.46
2.64
11.89
22.22
32.27
40.92
47.74
53.20
58.28
63.74
69.48
74.36
76.65
74.88
68.73
59.46
49.51
41.70
38.27
40.22
47.09
56.97
66.49
70.93
64.91
44.10
7.59
-40.28
-90.10
-130.07
-150.49
-147.71
-125.43
-92.66
-59.42
-32.69
-14.66
-3.87
2.14
4.55
2.98
-3.17
-13.12
-24.22
-32.83
-36.18
-33.70
-27.04
-19.12
-12.52
-8.32
-5.82
-3.09
1.96
10.57
22.48
35.92
48.34
57.40
61.91
62.22
60.02
57.52
56.58
58.19
62.31
67.99
73.63
77.23
76.81
71.02
59.77
44.30
26.71
9.07
-7.45
-22.75
-37.20
-50.65
-61.90
-68.93
-69.90
-64.27
-53.28
-39.53
-25.86
-14.30
-5.54
0.83
5.70
9.68
12.76
14.45
14.12
11.48
6.78
0.91
-4.99
-9.77
-12.77
-13.87
-13.48
-12.27
-10.90
-9.76
-8.94
-8.28
-7.55
-6.53
-5.08
-3.14
-0.75
1.91
4.43
6.23
6.73
5.67
3.26
0.30
-2.06
-2.74
-1.05
3.02
8.88
15.51
21.76
26.65
29.49
29.95
28.10
24.30
19.17
13.46
7.92
3.25
-0.15
-2.21
-3.21
-3.75
-4.48
-5.82
-7.85
-10.26
-12.56
-14.32
-15.41
-15.99
-16.40
-16.99
-18.02
-19.65
-21.94
-24.87
-28.12
-31.05
-32.67
-31.98
-28.30
-21.64
-12.78
-3.00
6.40
14.54
21.09
26.19
30.10
32.86
34.24
33.83
31.43
27.24
22.02
16.88
12.90
10.74
10.37
11.13
11.95
11.80
9.99
6.34
1.20
-4.76
-10.75
-16.05
-20.09
-22.56
-23.45
-23.19
-22.48
-22.10
-22.61
-23.97
-25.60
-26.47
-25.67
-22.73
-17.92
-12.11
-6.34
-1.49
2.16
4.80
6.91
8.85
10.69
12.22
13.16
13.46
13.37
13.35
13.72
14.44
15.06
14.94
13.69
11.36
8.53
6.00
4.40
3.89
4.10
4.35
3.95
2.50
-0.08
-3.52
-7.40
-11.25
-14.62
-17.08
-18.25
-17.84
-15.80
-12.35
-7.99
-3.39
0.80
4.12
6.35
7.53
7.82
7.43
6.51
5.17
3.50
1.59
-0.42
-2.34
-3.92
-4.95
-5.28
-4.93
-4.12
-3.23
-2.66
-2.70
-3.39
-4.56
-5.97
-7.43
-8.88
-10.38
-11.97
-13.61
-15.25
-16.77
-18.03
-18.86
-18.92
-17.76
-14.88
-10.01
-3.20
4.99
13.63
21.58
27.71
31.10
31.22
28.12
22.38
15.14
7.80
1.70
-2.23
-3.69
-3.08
-1.30
0.49
1.16
-0.06
-3.40
-8.43
-14.27
-19.78
-24.00
-26.40
-26.96
-26.15
-24.65
-23.19
-22.36
-22.50
-23.63
-25.36
-26.86
-27.05
-24.90
-19.82
-11.98
-2.29
7.89
17.15
24.44
29.32
31.88
32.56
31.90
30.36
28.30
26.02
23.85
22.21
21.47
21.91
23.46
25.71
27.94
29.31
29.15
27.08
23.07
17.40
10.39
2.29
-6.72
-16.46
-26.60
-36.52
-45.42
-52.48
-57.13
-59.24
-58.98
-56.67
-52.58
-46.82
-39.48
-30.90
-21.78
-13.08
-5.74
-0.28
3.37
5.79
7.73
9.76
12.08
14.49
16.68
18.50
20.11
21.94
24.42
27.68
31.31
34.36
35.55
33.76
28.47
20.06
9.75
-0.68
-9.44
-15.19
-17.43
-16.69
-14.56
-13.41
-15.79
-23.50
-36.72
-53.56
-70.25
-82.17
-85.25
-77.26
-58.46
-31.36
0.22
32.23
61.36
85.38
103.09
114.05
118.36
116.46
109.09
97.40
82.83
67.01
51.36
36.58
22.47
8.05
-7.66
-24.58
-40.88
-53.09
-57.14
-50.49
-33.78
-11.40
9.91
23.54
25.26
14.36
-6.74
-33.41
-59.97
-80.55
-90.06
-85.38
-66.57
-37.45
-4.75
23.99
43.00
50.08
46.67
36.32
22.74
8.45
-5.28
-17.75
-28.15
-35.65
-39.81
-40.96
-40.16
-38.72
-37.71
-37.61
-38.28
-39.18
-39.79
-39.76
-38.99
-37.55
-35.64
-33.46
-31.18
-28.78
-26.02
-22.41
-17.36
-10.44
-1.72
8.18
18.17
27.17
34.44
39.92
44.04
47.40
50.32
52.53
53.22
51.50
46.93
39.82
31.28
22.79
15.74
10.89
8.36
7.65
8.09
9.02
9.92
10.43
10.19
8.91
6.45
2.90
-1.35
-5.80
-9.98
-13.57
-16.42
-18.42
-19.44
-19.32
-18.03
-15.77
-12.95
-10.12
-7.71
-5.87
-4.50
-3.47
-2.72
-2.36
-2.55
-3.30
-4.35
-5.22
-5.43
-4.77
-3.36
-1.56
0.16
1.49
2.29
2.63
2.63
2.37
1.89
1.11
-0.12
-2.00
-4.69
-8.26
-12.51
-16.87
-20.45
-22.23
-21.41
-17.80
-11.87
-4.69
2.55
8.94
14.14
18.25
21.51
23.90
25.10
24.59
22.09
17.83
12.57
7.34
3.07
0.27
-1.06
-1.17
-0.51
0.55
1.74
2.77
3.34
3.06
1.60
-1.16
-5.05
-9.57
-14.01
-17.62
-19.79
-20.10
-18.35
-14.53
-8.88
-1.87
5.76
13.09
19.25
23.62
26.08
26.92
26.66
25.72
24.26
22.11
18.99
14.72
9.40
3.52
-2.20
-7.05
-10.58
-12.76
-13.98
-14.81
-15.74
-16.96
-18.32
-19.45
-20.09
-20.25
-20.32
-20.79
-22.01
-23.82
-25.47
-25.85
-23.86
-18.85
-10.88
-0.76
10.20
20.45
28.58
33.52
34.67
32.04
26.24
18.55
10.58
4.03
0.12
-0.76
0.92
4.01
7.17
9.38
10.19
9.72
8.40
6.70
4.94
3.27
1.76
0.54
-0.24
-0.44
-0.01
1.01
2.58
4.69
7.41
10.80
14.80
19.19
23.56
27.52
30.83
33.44
35.43
36.83
37.44
36.86
34.58
30.21
23.69
15.31
5.70
-4.27
-13.70
-21.70
-27.60
-30.94
-31.62
-29.82
-26.00
-20.82
-15.10
-9.76
-5.77
-4.02
-5.13
-9.26
-16.07
-24.75
-34.19
-43.14
-50.42
-55.03
-56.29
-53.90
-48.04
-39.35
-28.87
-17.85
-7.58
0.80
6.47
9.09
8.89
6.68
3.74
1.59
1.57
4.41
10.03
17.47
25.28
31.93
36.36
38.19
37.69
35.50
32.26
28.33
23.78
18.42
12.04
4.55
-3.88
-12.76
-21.28
-28.47
-33.39
-35.37
-34.18
-30.07
-23.63
-15.62
-6.78
2.25
10.95
18.82
25.29
29.69
31.26
29.41
24.02
15.73
6.05
-2.82
-8.58
-9.50
-5.04
3.96
15.60
27.57
37.89
45.35
49.58
50.79
49.34
45.60
39.90
32.79
25.20
18.36
13.60
11.91
13.64
18.35
24.85
31.56
37.01
40.45
42.32
44.19
48.20
55.95
67.53
81.15
93.69
101.95
104.02
99.91
91.22
80.19
68.55
57.09
45.86
34.94
24.92
16.92
11.89
9.80
9.23
7.66
2.37
-8.44
-24.88
-45.31
-66.92
-86.75
-102.43
-112.74
-117.48
-117.18
-112.69
-104.98
-95.01
-83.67
-71.69
-59.54
-47.47
-35.63
-24.38
-14.34
-6.35
-1.05
1.45
1.69
0.69
-0.61
-1.83
-3.30
-5.88
-10.37
-16.96
-24.85
-32.40
-37.72
-39.40
-37.21
-32.24
-26.46
-21.91
-19.72
-19.74
-20.74
-21.27
-20.46
-18.51
-16.36
-14.95
-14.52
-14.25
-12.71
-8.40
-0.48
11.06
25.45
41.54
58.07
73.83
87.78
99.06
107.15
111.82
113.11
111.19
106.12
97.93
86.55
72.20
55.41
37.14
18.58
0.79
-15.56
-30.43
-44.20
-57.42
-70.20
-82.09
-91.99
-98.63
-101.10
-99.21
-93.57
-85.14
-74.81
-63.18
-50.60
-37.53
-24.58
-12.39
-1.08
10.19
23.04
39.12
58.98
81.26
102.99
120.71
132.01
136.50
135.71
131.99
127.08
121.30
113.68
102.89
88.35
70.71
51.67
33.08
16.21
1.42
-11.68
-23.58
-34.53
-44.36
-52.75
-59.55
-65.14
-70.26
-75.78
-82.17
-89.21
-96.02
-101.50
-104.83
-105.85
-105.14
-103.56
-101.72
-99.69
-96.92
-92.75
-86.81
-79.46
-71.66
-64.61
-59.20
-55.69
-53.68
-52.39
-51.05
-49.11
-46.27
-42.38
-37.52
-32.26
-27.95
-26.46
-29.34
-36.63
-46.02
-53.31
-53.89
-44.94
-26.81
-3.06
21.15
41.26
54.88
62.16
64.73
64.39
62.10
58.00
52.00
44.46
36.47
29.49
24.75
22.72
22.92
24.15
25.07
24.72
22.94
20.26
17.58
15.64
14.63
14.18
13.58
12.19
9.78
6.54
3.06
-0.02
-2.14
-3.03
-2.70
-1.44
0.30
1.95
2.94
2.77
1.13
-2.01
-6.32
-11.21
-15.97
-19.91
-22.64
-24.07
-24.43
-24.21
-24.12
-24.87
-26.95
-30.12
-33.13
-33.76
-29.60
-19.10
-2.68
17.06
36.14
50.69
58.45
59.41
55.35
48.76
41.69
35.28
29.95
26.05
24.16
24.95
28.71
34.85
41.82
47.50
49.99
48.27
42.60
34.46
26.01
19.46
16.33
16.98
20.33
24.02
25.11
20.99
10.59
-4.96
-22.37
-37.20
-45.43
-45.01
-36.60
-23.15
-8.69
3.21
10.52
13.00
11.63
7.88
2.92
-2.56
-8.27
-13.99
-19.42
-24.12
-27.74
-30.19
-31.65
-32.45
-32.79
-32.57
-31.47
-29.19
-25.66
-21.17
-16.14
-10.93
-5.76
-0.84
3.33
5.92
5.97
2.94
-2.85
-9.97
-16.32
-19.79
-18.92
-13.27
-3.29
9.98
25.19
40.87
55.70
68.40
77.88
83.51
85.27
83.70
79.56
73.37
65.12
55.07
43.72
32.14
21.78
13.86
8.90
6.54
5.76
5.46
6.07
8.78
15.00
25.25
38.58
52.94
66.30
77.44
86.07
93.65
101.51
110.53
121.22
134.16
150.56
171.84
198.38
220.12
225.99
206.93
161.60
98.39
31.24
-27.19
-70.20
-97.66
-113.67
-122.04
-124.95
-122.65
-115.06
-103.07
-88.86
-75.22
-64.26
-57.05
-52.60
-49.04
-44.37
-37.91
-30.31
-23.07
-17.91
-15.79
-16.71
-19.79
-23.55
-26.38
-27.79
-28.15
-28.44
-29.36
-30.62
-31.06
-29.66
-25.38
-18.04
-9.69
-3.67
-3.70
-11.71
-26.44
-43.94
-60.48
-73.00
-76.69
-71.83
-62.51
-55.03
-54.95
-65.17
-86.26
-118.62
-160.16
-206.07
-249.81
-283.70
-301.44
-299.49
-278.11
-230.83
-162.27
-84.35
-10.52
49.62
92.19
116.03
120.47
108.80
85.61
55.45
24.76
0.34
-13.63
-14.50
-5.98
4.88
11.62
11.04
3.56
-6.03
-11.26
-7.77
7.24
30.16
54.21
73.70
86.47
92.86
94.05
90.48
81.36
66.09
45.06
21.13
-1.18
-18.14
-27.55
-30.14
-28.54
-25.88
-24.49
-25.78
-29.56
-34.40
-38.63
-41.11
-41.56
-40.15
-37.18
-32.91
-27.96
-22.99
-18.66
-15.64
-14.41
-15.13
-17.24
-19.59
-20.75
-19.77
-16.47
-11.64
-6.91
-4.39
-6.02
-12.76
-23.74
-36.11
-45.58
-47.82
-40.18
-22.93
0.65
25.51
46.92
62.18
71.21
75.87
78.52
80.88
83.72
87.19
91.40
96.58
102.93
110.15
117.36
123.22
126.44
126.12
121.99
114.23
103.32
90.09
75.48
60.39
45.29
30.05
14.15
-2.85
-20.81
-38.81
-55.08
-67.58
-74.48
-74.83
-68.66
-56.88
-40.91
-22.55
-5.19
7.40
12.38
10.02
3.90
-1.14
-1.74
2.47
9.40
16.33
21.87
26.22
30.69
35.83
40.69
43.80
44.41
43.01
40.64
38.48
34.77
27.37
14.74
-2.69
-21.89
-38.59
-49.20
-52.45
-49.66
-43.28
-34.78
-24.86
-13.67
-1.16
12.40
26.24
39.43
50.85
59.66
66.20
70.46
71.83
69.16
60.60
43.91
17.67
-18.04
-59.42
-98.53
-126.97
-138.83
-132.73
-112.48
-85.43
-55.70
-28.75
-12.33
-6.38
-7.12
-11.82
-18.40
-25.00
-29.68
-30.58
-27.31
-20.54
-11.60
-3.34
1.03
-0.37
-7.50
-18.45
-30.02
-39.26
-43.76
-42.20
-35.74
-27.35
-20.05
-15.60
-13.80
-12.85
-10.86
-6.73
-0.64
5.55
9.44
9.59
6.02
-0.11
-7.33
-14.72
-21.82
-28.23
-33.60
-37.49
-39.54
-39.90
-39.26
-38.60
-38.81
-40.33
-43.13
-47.04
-51.87
-57.20
-62.27
-65.85
-66.15
-61.15
-49.09
-29.41
-3.40
25.64
53.17
74.94
88.63
94.72
95.99
96.01
97.52
101.44
107.07
113.03
118.09
121.48
122.54
120.31
113.64
101.80
85.11
65.15
44.19
24.36
7.10
-7.19
-18.83
-28.48
-36.75
-44.14
-50.93
-57.18
-62.60
-66.53
-68.17
-66.89
-62.52
-55.61
-47.19
-38.44
-30.26
-23.15
-17.33
-13.05
-10.71
-10.64
-12.78
-16.35
-19.97
-22.32
-22.67
-21.27
-19.06
-16.91
-14.98
-12.64
-8.97
-3.63
2.55
7.72
9.81
7.55
1.21
-7.50
-16.23
-23.03
-27.11
-29.06
-30.33
-32.39
-36.00
-40.87
-45.81
-49.33
-50.24
-48.00
-42.77
-35.39
-27.27
-20.30
-16.64
-18.16
-25.71
-38.43
-53.50
-66.91
-74.83
-75.13
-68.26
-56.89
-44.68
-34.69
-28.38
-25.56
-25.15
-26.15
-28.22
-31.46
-35.91
-40.95
-45.22
-46.96
-44.80
-38.29
-28.20
-16.08
-3.75
7.47
17.27
26.43
36.47
48.94
64.65
83.21
103.15
122.45
139.37
153.21
164.43
174.40
184.67
196.21
208.98
221.79
232.58
239.15
239.90
234.48
223.98
210.55
196.61
183.93
173.09
163.50
153.92
143.09
130.06
114.14
94.83
72.01
46.40
20.09
-3.54
-20.72
-28.70
-27.19
-18.73
-7.96
0.11
1.80
-4.19
-16.83
-33.64
-51.74
-68.63
-82.47
-92.04
-96.56
-95.74
-89.87
-79.92
-67.38
-53.97
-41.12
-29.68
-19.95
-11.86
-5.34
-0.73
1.32
-0.08
-5.51
-15.01
-27.85
-42.77
-58.26
-72.96
-85.86
-96.37
-104.24
-109.39
-111.88
-111.91
-109.92
-106.68
-103.22
-100.72
-100.14
-101.95
-105.96
-111.29
-116.57
-120.31
-121.25
-118.73
-112.87
-104.58
-95.28
-86.56
-79.57
-74.77
-71.80
-69.77
-67.65
-64.76
-60.95
-56.68
-52.83
-50.46
-50.49
-53.37
-58.72
-65.20
-70.68
-72.88
-70.21
-62.46
-50.93
-38.01
-26.28
-17.63
-12.89
-11.77
-13.24
-15.97
-18.57
-19.87
-19.10
-16.04
-11.12
-5.24
0.69
6.12
11.07
16.01
21.47
27.66
34.36
41.04
47.22
52.76
57.89
63.07
68.80
75.32
82.64
90.49
98.38
105.68
111.81
116.32
119.16
120.68
121.52
122.35
123.48
124.75
125.52
125.00
122.50
117.62
110.27
100.68
89.34
77.15
65.27
54.87
46.65
40.27
34.35
27.14
17.66
6.50
-4.06
-11.25
-13.30
-10.59
-5.69
-2.04
-2.28
-7.07
-15.06
-23.97
-31.97
-38.52
-44.17
-49.67
-55.04
-59.36
-61.25
-59.87
-55.41
-49.14
-42.80
-37.74
-34.43
-32.44
-30.70
-28.04
-23.41
-15.96
-5.31
8.31
23.65
38.36
49.35
53.65
49.44
36.78
17.63
-4.83
-27.23
-47.05
-63.05
-75.14
-83.99
-90.35
-94.70
-97.14
-97.65
-96.33
-93.53
-89.77
-85.47
-80.83
-75.81
-70.44
-65.04
-60.30
-57.09
-55.97
-56.91
-59.07
-61.19
-62.06
-61.20
-59.13
-57.29
-57.41
-60.56
-66.46
-73.16
-77.52
-76.30
-67.37
-50.67
-28.21
-3.57
19.28
36.97
47.47
50.35
46.62
38.40
28.41
19.39
13.60
12.21
15.11
20.94
27.57
32.76
34.94
33.64
29.69
24.84
21.18
20.43
23.45
30.15
39.76
51.22
63.33
74.98
85.10
92.78
97.42
98.92
97.64
94.26
89.51
84.08
78.68
74.05
70.84
69.36
69.36
70.09
70.70
70.85
70.96
72.00
74.68
78.69
82.51
83.81
80.48
71.63
57.97
41.56
24.96
10.41
-0.66
-7.52
-9.99
-8.09
-1.94
7.92
20.10
32.26
41.16
43.15
35.09
15.40
-14.98
-52.07
-89.25
-118.75
-133.74
-130.64
-110.34
-77.96
-41.32
-8.42
14.58
24.63
21.82
8.73
-10.79
-32.52
-52.59
-67.89
-76.43
-77.29
-70.61
-57.62
-40.75
-23.65
-10.70
-5.85
-11.01
-24.91
-43.34
-60.92
-73.42
-79.47
-80.50
-79.06
-76.69
-72.77
-65.02
-51.25
-31.29
-7.56
15.77
34.50
46.15
50.61
49.58
45.59
40.84
36.54
32.84
29.19
24.72
18.77
11.27
2.69
-6.03
-13.69
-19.15
-21.63
-20.90
-17.42
-12.14
-6.15
-0.25
5.40
11.09
17.30
24.20
31.47
38.25
43.46
46.06
45.28
40.81
32.89
22.37
10.61
-0.75
-10.21
-16.79
-20.22
-20.82
-19.20
-15.92
-11.40
-6.02
-0.21
5.41
10.09
13.09
13.77
11.76
6.98
-0.30
-9.44
-19.46
-29.19
-37.41
-43.17
-45.83
-45.18
-41.39
-34.90
-26.36
-16.59
-6.50
2.96
10.94
16.95
20.89
23.14
24.31
25.00
25.52
25.83
25.70
25.07
24.20
23.68
24.12
25.74
28.24
30.93
33.11
34.54
35.46
36.43
37.82
39.64
41.46
42.74
43.17
42.71
41.44
39.36
36.13
31.32
24.74
16.71
8.15
0.27
-5.89
-9.90
-11.97
-12.80
-13.19
-13.76
-14.85
-16.55
-18.85
-21.68
-24.95
-28.44
-31.80
-34.47
-35.85
-35.50
-33.33
-29.72
-25.44
-21.45
-18.53
-17.02
-16.81
-17.59
-19.14
-21.60
-25.48
-31.22
-38.83
-47.63
-56.37
-63.59
-68.05
-68.85
-65.41
-57.34
-44.48
-27.21
-6.70
15.04
35.68
53.31
66.98
76.88
83.79
88.41
90.95
91.14
88.77
84.15
78.31
72.57
67.91
64.41
61.24
57.09
50.90
42.48
32.63
22.79
14.41
8.36
4.64
2.49
0.81
-1.30
-4.21
-7.75
-11.33
-14.18
-15.57
-14.98
-12.21
-7.51
-1.52
4.77
10.38
14.66
17.66
19.96
22.43
25.66
29.66
33.99
38.10
41.69
44.96
48.39
52.33
56.66
60.67
63.41
64.30
63.46
61.83
60.89
62.29
67.21
75.92
87.48
99.84
110.74
118.00
120.17
116.78
108.35
95.93
80.49
62.36
41.24
16.72
-12.10
-45.92
-84.21
-123.73
-158.03
-178.47
-177.20
-150.36
-99.76
-34.24
32.99
88.83
125.15
140.95
141.39
134.12
126.12
122.72
125.85
134.94
148.05
163.05
177.73
189.85
196.75
187.43
156.37
105.27
43.45
-16.93
-66.41
-101.64
-122.58
-135.87
-147.92
-161.72
-178.36
-197.40
-217.92
-236.74
-249.73
-252.85
-244.00
-223.34
-192.35
-154.26
-111.15
-67.64
-29.12
-0.80
13.49
11.86
-4.60
-30.66
-60.34
-87.60
-108.25
-120.61
-126.03
-127.68
-127.22
-126.01
-123.40
-117.17
-104.70
-85.05
-59.57
-31.62
-5.07
17.17
33.95
46.02
54.71
61.07
65.53
68.71
72.05
77.72
87.58
101.68
118.03
132.94
142.65
144.68
138.58
125.78
108.49
88.77
67.74
45.87
23.09
-0.31
-23.19
-43.34
-58.05
-65.26
-64.75
-58.68
-50.67
-44.27
-41.43
-42.24
-45.92
-52.19
-61.98
-76.87
-97.63
-122.94
-149.31
-172.30
-188.25
-195.39
-193.88
-184.98
-170.07
-150.50
-127.82
-104.06
-81.49
-61.96
-46.54
-35.32
-27.78
-23.02
-19.80
-16.42
-10.86
-1.52
11.88
27.90
43.87
57.19
66.56
72.40
76.24
79.58
83.09
86.67
90.09
93.68
98.36
104.99
113.68
123.35
132.08
137.75
138.80
134.64
125.67
112.98
98.02
82.26
66.90
52.68
39.89
28.45
18.06
8.32
-1.20
-10.83
-20.88
-31.53
-42.74
-54.22
-65.45
-75.84
-84.98
-92.80
-99.50
-105.34
-110.31
-114.03
-115.81
-115.06
-111.59
-105.75
-98.26
-89.83
-80.93
-71.62
-61.74
-51.03
-39.34
-26.61
-12.87
1.83
17.35
33.29
48.96
63.36
75.48
84.66
90.97
95.25
98.77
102.61
107.05
111.29
113.69
112.44
106.31
95.11
79.63
61.16
40.90
19.72
-1.74
-22.77
-42.35
-59.24
-72.35
-81.19
-86.04
-87.86
-87.79
-86.76
-85.17
-82.98
-79.89
-75.59
-69.79
-62.14
-52.21
-39.69
-24.75
-8.40
7.67
21.64
32.40
40.29
47.11
55.33
66.89
82.08
99.30
115.71
128.42
135.57
136.89
133.34
126.35
116.97
105.61
92.06
76.12
57.98
38.43
18.55
-0.68
-18.69
-35.36
-50.59
-64.10
-75.23
-83.26
-87.85
-89.34
-88.75
-87.30
-85.90
-84.74
-83.41
-81.19
-77.52
-72.25
-65.49
-57.43
-48.17
-37.80
-26.70
-15.64
-5.75
1.87
6.58
8.47
8.24
6.84
4.98
2.86
0.16
-3.59
-8.71
-15.02
-21.91
-28.54
-34.10
-38.07
-40.20
-40.44
-38.81
-35.30
-29.82
-22.25
-12.62
-1.31
10.84
22.50
32.16
38.45
40.60
38.73
33.82
27.45
21.37
16.98
14.99
15.31
17.20
19.56
21.29
21.62
20.19
17.04
12.43
6.65
-0.20
-8.19
-17.44
-27.97
-39.55
-51.60
-63.21
-73.17
-80.11
-82.73
-80.15
-72.20
-59.64
-43.94
-26.88
-9.80
6.86
23.33
39.91
56.15
70.52
80.97
86.06
85.91
82.08
76.90
72.26
69.30
68.60
70.73
76.21
84.85
94.59
101.56
101.51
92.18
75.07
55.47
40.45
35.78
43.28
60.27
80.89
98.56
108.40
108.39
99.05
82.14
59.50
32.69
3.64
-24.21
-45.65
-55.02
-48.73
-27.49
3.09
34.62
59.48
74.00
79.17
78.72
76.06
72.92
69.86
68.20
70.95
81.41
100.15
122.38
138.32
136.90
110.56
58.98
-10.92
-87.96
-161.16
-222.91
-269.83
-301.86
-320.67
-328.75
-329.04
-324.68
-318.43
-311.92
-305.45
-298.55
-291.11
-283.77
-277.60
-272.76
-267.32
-257.01
-236.67
-202.47
-154.01
-95.21
-33.31
23.45
68.69
99.95
119.25
131.71
143.27
158.33
178.38
202.07
226.26
247.23
261.24
264.76
254.71
229.58
191.19
146.07
105.05
80.57
82.25
112.92
166.81
231.03
289.66
328.41
338.26
317.06
268.82
201.92
126.93
54.40
-6.86
-51.44
-78.26
-90.84
-96.10
-102.43
-116.90
-142.83
-178.66
-218.51
-254.32
-278.51
-286.15
-275.73
-248.97
-209.41
-161.25
-109.13
-58.39
-14.96
15.69
30.45
30.80
22.30
13.16
11.14
20.65
41.55
70.20
101.50
130.98
156.02
174.85
187.05
194.02
199.07
206.63
220.56
241.79
266.94
289.22
299.34
289.76
257.80
206.70
144.19
79.83
21.99
-28.26
-69.85
-105.00
-138.18
-173.23
-210.56
-247.25
-277.54
-295.40
-297.39
-281.40
-251.60
-215.99
-183.05
-158.65
-144.83
-139.69
-138.29
-133.98
-119.93
-92.21
-49.82
5.31
68.72
133.87
190.28
226.84
236.80
221.66
189.63
151.92
118.11
93.74
80.17
75.72
77.22
81.66
86.96
91.50
94.31
95.07
94.08
92.06
89.86
87.57
85.57
84.35
83.83
83.47
82.34
79.68
75.19
69.27
62.52
56.32
52.07
50.31
50.35
50.25
47.27
38.21
24.07
5.62
-15.26
-36.12
-54.99
-71.23
-85.70
-99.87
-114.53
-128.74
-140.51
-147.30
-147.42
-140.30
-125.47
-101.32
-65.17
-15.28
46.52
112.81
172.40
214.05
231.02
223.66
198.51
164.69
129.54
96.50
65.44
35.14
5.22
-23.68
-50.99
-77.80
-107.51
-144.99
-193.42
-251.39
-311.90
-364.28
-398.42
-408.97
-397.29
-370.26
-337.70
-307.44
-283.37
-266.08
-254.75
-248.42
-245.33
-241.54
-230.52
-207.14
-167.73
-111.94
-43.35
31.27
103.57
165.17
208.83
229.64
222.30
186.85
129.72
61.99
-4.94
-63.61
-112.34
-154.26
-193.83
-238.51
-290.38
-344.92
-393.32
-427.26
-442.67
-440.71
-426.61
-380.98
-298.65
-187.82
-66.44
48.20
146.31
224.75
283.14
318.08
332.40
324.81
296.46
252.80
202.05
151.52
104.01
59.78
15.83
-30.08
-80.20
-130.22
-169.30
-185.12
-170.56
-127.98
-68.33
-6.40
45.97
81.70
101.97
114.85
130.43
156.43
195.61
245.87
301.54
355.26
398.20
422.31
423.30
401.60
362.68
315.62
270.90
237.39
219.85
217.94
220.17
213.52
187.61
140.44
78.70
13.28
-44.22
-91.67
-128.41
-153.65
-165.01
-160.28
-137.53
-98.63
-48.80
4.59
53.64
91.32
111.64
113.48
101.49
84.38
69.96
61.37
56.53
50.53
41.09
27.79
13.70
2.45
-4.76
-10.90
-22.07
-44.90
-83.74
-136.49
-196.36
-253.19
-297.37
-323.43
-332.07
-328.99
-321.47
-314.65
-309.15
-302.52
-291.53
-275.32
-255.89
-236.32
-217.71
-198.16
-174.47
-145.43
-114.12
-86.21
-66.15
-53.74
-44.25
-31.99
-14.92
3.29
16.11
19.90
18.86
24.42
49.07
97.83
163.22
227.25
269.81
278.89
256.66
218.07
182.84
165.68
170.06
188.49
209.04
223.19
230.71
238.78
256.43
287.71
328.25
366.73
390.13
389.79
364.70
320.92
268.63
218.15
177.15
149.66
136.74
137.29
148.31
164.91
179.85
185.80
177.31
151.97
110.75
57.27
-3.22
-64.92
-122.20
-171.36
-209.10
-233.07
-243.00
-241.68
-234.72
-229.35
-232.45
-248.54
-279.80
-322.68
-368.12
-404.53
-422.00
-416.07
-389.18
-349.31
-297.91
-242.22
-190.87
-149.58
-118.69
-95.20
-76.46
-61.63
-51.76
-45.13
-39.88
-32.78
-20.56
-1.49
23.89
53.45
83.98
113.04
139.36
161.05
176.85
186.09
188.36
183.45
171.47
153.35
130.88
106.51
81.95
59.03
39.66
25.25
16.13
11.43
9.32
7.86
5.59
1.44
-4.52
-11.31
-17.51
-22.02
-24.40
-24.83
-23.79
-21.76
-19.28
-16.69
-14.22
-12.22
-11.20
-11.65
-13.86
-17.65
-22.36
-27.11
-31.13
-33.86
-35.12
-35.05
-34.00
-32.40
-30.70
-29.25
-28.33
-28.01
-28.21
-28.75
-29.44
-30.24
-31.28
-32.78
-34.93
-37.76
-41.03
-44.25
-46.67
-47.48
-45.95
-41.67
-34.70
-25.57
-15.27
-4.99
4.19
11.49
16.60
19.65
21.13
21.66
21.80
21.89
22.02
22.06
21.76
20.84
19.13
16.57
13.30
9.60
5.83
2.37
-0.40
-2.33
-3.47
-4.18
-4.96
-6.28
-8.41
-11.33
-14.60
-17.41
-18.76
-17.87
-14.35
-8.41
-0.71
7.78
16.12
23.68
30.77
38.09
46.29
55.61
65.70
75.88
85.41
93.68
100.31
106.14
111.98
118.11
123.96
128.41
130.49
129.87
126.86
122.13
118.07
116.68
118.74
123.57
129.27
133.89
136.24
135.95
133.68
133.01
137.81
151.15
174.19
205.45
241.41
277.08
306.73
312.87
284.65
221.93
137.53
51.28
-20.28
-70.08
-100.22
-118.20
-130.88
-140.28
-145.96
-147.09
-142.88
-135.06
-124.65
-110.82
-92.34
-67.71
-36.76
-4.10
19.04
20.88
-5.02
-55.34
-118.32
-184.31
-245.56
-297.53
-339.39
-371.69
-393.70
-403.20
-398.08
-372.22
-327.43
-270.51
-210.18
-153.85
-104.98
-62.78
-24.65
11.06
43.24
67.58
80.69
82.04
74.36
62.38
50.89
42.72
38.26
35.91
32.84
27.58
20.17
11.82
3.98
-2.24
-6.49
-9.16
-11.03
-13.35
-16.58
-20.56
-24.69
-28.27
-30.86
-32.41
-33.36
-34.33
-35.97
-38.28
-40.56
-41.64
-40.45
-36.41
-29.67
-21.11
-11.86
-3.04
4.70
11.11
16.18
19.89
22.13
22.82
22.06
20.28
18.25
16.76
16.40
17.32
19.22
21.53
23.61
24.96
25.34
24.71
23.20
21.05
18.55
15.99
13.54
11.26
9.05
6.66
3.86
0.50
-3.35
-7.42
-11.17
-13.89
-14.85
-13.49
-9.60
-3.45
4.23
12.39
20.02
26.30
30.85
33.61
34.78
34.60
33.36
31.32
28.78
26.12
23.72
21.90
20.83
20.46
20.56
20.76
20.71
20.17
19.08
17.58
15.88
14.24
12.75
11.36
9.89
8.11
5.84
3.00
-0.41
-4.25
-8.27
-11.95
-14.61
-15.49
-13.99
-9.98
-3.86
3.46
10.88
17.44
22.56
26.05
28.06
28.79
28.50
27.36
25.55
23.39
21.23
19.50
18.48
18.23
18.53
18.95
19.02
18.42
17.10
15.25
13.21
11.24
9.46
7.74
5.92
3.82
1.34
-1.51
-4.70
-8.08
-11.37
-14.08
-15.56
-15.15
-12.52
-7.74
-1.46
5.36
11.72
16.90
20.55
22.67
23.43
23.01
21.55
19.21
16.21
12.92
9.78
7.22
5.51
4.75
4.77
5.24
5.77
6.00
5.71
4.87
3.57
1.96
0.16
-1.78
-3.88
-6.15
-8.65
-11.45
-14.64
-18.30
-22.38
-26.55
-30.17
-32.39
-32.42
-29.84
-24.77
-17.88
-10.14
-2.51
4.31
9.96
14.29
17.26
18.90
19.22
18.40
16.77
14.75
12.79
11.13
9.82
8.73
7.64
6.47
5.23
4.06
3.06
2.29
1.64
0.94
0.05
-1.09
-2.44
-3.89
-5.35
-6.81
-8.35
-10.14
-12.39
-15.28
-18.81
-22.77
-26.59
-29.52
-30.77
-29.82
-26.66
-21.82
-16.21
-10.80
-6.30
-2.97
-0.67
1.00
2.53
4.34
6.76
10.02
14.25
19.37
25.07
30.82
35.99
39.98
42.42
43.25
42.59
40.63
37.50
33.18
27.63
20.94
13.55
6.19
-0.29
-5.15
-8.02
-8.96
-8.50
-7.36
-6.28
-5.76
-5.92
-6.53
-7.14
-7.31
-6.70
-5.22
-3.03
-0.44
2.33
5.16
7.88
10.25
11.96
12.72
12.35
10.91
8.66
6.50
5.30
5.65
7.55
10.48
13.65
16.38
18.25
19.16
20.23
22.61
27.01
33.19
40.17
46.61
51.43
54.13
54.83
55.65
58.82
65.69
75.98
88.02
99.76
109.88
118.53
127.07
139.34
158.59
185.95
219.85
257.08
294.29
329.27
361.02
375.90
363.07
317.15
242.31
151.29
59.81
-20.13
-82.94
-128.47
-159.71
-178.60
-186.71
-185.31
-178.58
-171.79
-170.29
-178.25
-197.99
-229.71
-269.85
-309.79
-339.72
-352.14
-344.01
-318.09
-281.82
-244.33
-212.91
-189.48
-173.16
-158.63
-142.19
-123.15
-103.33
-85.29
-70.57
-59.04
-48.84
-37.92
-25.44
-12.48
-0.90
7.48
12.01
13.52
13.84
15.12
18.82
25.15
32.81
39.88
44.67
46.35
45.11
41.89
37.87
33.95
30.60
27.56
24.41
20.80
16.76
12.58
8.73
5.59
3.32
1.80
0.73
-0.17
-0.88
-1.09
-0.31
1.85
5.51
10.31
15.62
20.56
24.37
26.56
27.01
25.90
23.59
20.52
17.06
13.51
10.02
6.72
3.70
1.07
-1.10
-2.80
-4.14
-5.32
-6.58
-8.00
-9.55
-11.02
-12.17
-12.89
-13.22
-13.32
-13.42
-13.66
-14.10
-14.75
-15.57
-16.48
-17.34
-17.85
-17.59
-16.12
-13.14
-8.67
-3.05
3.08
9.00
14.12
18.06
20.75
22.28
22.83
22.64
21.89
20.80
19.61
18.55
17.77
17.19
16.39
14.79
11.76
7.05
0.88
-5.96
-12.48
-17.75
-21.27
-23.02
-23.34
-22.70
-21.54
-20.18
-18.94
-18.12
-18.03
-18.76
-20.12
-21.49
-22.09
-21.14
-18.22
-13.44
-7.45
-1.20
4.38
8.69
11.56
13.17
13.84
13.79
13.07
11.66
9.57
7.05
4.56
2.60
1.57
1.61
2.53
3.95
5.37
6.41
6.84
6.64
5.99
5.10
4.15
3.22
2.26
1.12
-0.32
-2.17
-4.46
-7.14
-10.04
-12.83
-15.03
-16.14
-15.71
-13.60
-10.00
-5.43
-0.54
4.04
7.83
10.58
12.16
12.61
12.01
10.56
8.49
6.09
3.65
1.46
-0.25
-1.29
-1.61
-1.30
-0.60
0.16
0.69
0.82
0.59
0.12
-0.41
-0.96
-1.58
-2.34
-3.33
-4.56
-6.00
-7.65
-9.57
-11.74
-13.94
-15.70
-16.34
-15.19
-11.89
-6.61
0.02
7.07
13.68
19.23
23.41
26.14
27.39
27.18
25.55
22.78
19.38
16.01
13.26
11.45
10.50
10.05
9.60
8.75
7.37
5.55
3.58
1.71
0.12
-1.18
-2.28
-3.28
-4.25
-5.20
-6.15
-7.11
-8.18
-9.42
-10.78
-12.04
-12.79
-12.55
-10.94
-7.88
-3.64
1.21
5.99
10.15
13.37
15.58
16.87
17.31
16.94
15.73
13.75
11.25
8.67
6.47
5.01
4.37
4.38
4.74
5.10
5.27
5.23
5.01
4.65
4.13
3.37
2.28
0.82
-0.96
-2.98
-5.14
-7.35
-9.55
-11.74
-13.93
-16.10
-18.13
-19.77
-20.64
-20.34
-18.58
-15.35
-10.93
-5.84
-0.69
3.99
7.80
10.52
12.05
12.39
11.67
10.11
8.05
5.80
3.62
1.63
-0.09
-1.51
-2.60
-3.30
-3.51
-3.11
-2.02
-0.19
2.35
5.51
9.07
12.70
15.96
18.40
19.62
19.36
17.53
14.23
9.68
4.18
-1.89
-8.08
-13.90
-18.88
-22.71
-25.31
-26.92
-27.97
-28.90
-29.93
-30.90
-31.40
-30.97
-29.49
-27.50
-26.10
-26.55
-29.54
-34.62
-40.08
-43.36
-42.01
-34.70
-21.74
-5.10
12.36
27.84
39.37
46.12
48.49
47.96
46.91
48.30
54.89
68.25
87.69
109.95
129.83
142.08
143.37
133.69
116.38
96.82
80.68
72.53
74.67
86.84
106.64
130.17
152.91
170.56
179.70
178.71
168.37
150.75
128.37
103.61
78.62
55.45
36.12
21.73
12.54
8.30
7.33
7.18
5.83
2.69
-0.86
-2.05
1.16
9.78
23.82
41.34
59.32
75.02
86.88
94.86
100.05
103.49
99.53
86.04
64.80
40.51
16.93
-6.47
-33.44
-62.02
-90.94
-114.81
-125.92
-119.59
-97.32
-66.33
-37.36
-21.28
-24.08
-45.24
-77.36
-110.57
-137.96
-158.92
-176.64
-193.41
-208.76
-220.03
-225.31
-222.09
-211.09
-195.46
-179.11
-164.64
-152.55
-141.59
-129.69
-115.71
-99.69
-83.30
-68.86
-58.26
-51.91
-48.65
-46.31
-42.58
-36.03
-26.40
-14.90
-3.44
6.15
12.86
16.65
18.25
18.66
18.68
18.75
18.64
17.98
16.51
14.44
12.28
10.53
9.51
9.21
9.38
9.60
9.64
9.42
9.07
8.69
8.26
7.63
6.68
5.42
4.00
2.60
1.35
0.20
-1.03
-2.47
-4.12
-5.67
-6.61
-6.40
-4.71
-1.61
2.48
6.89
10.98
14.28
16.58
17.81
17.99
17.11
15.24
12.57
9.47
6.49
4.20
3.05
3.23
4.58
6.73
9.15
11.38
13.06
14.06
14.43
14.29
13.77
12.87
11.53
9.65
7.22
4.30
1.09
-2.25
-5.55
-8.69
-11.55
-13.88
-15.43
-15.91
-15.25
-13.54
-11.13
-8.44
-5.83
-3.54
-1.68
-0.33
0.47
0.61
0.06
-1.06
-2.51
-3.87
-4.75
-4.86
-4.14
-2.72
-0.89
1.03
2.77
4.21
5.35
6.24
6.95
7.48
7.76
7.68
7.15
6.13
4.64
2.72
0.38
-2.27
-5.06
-7.60
-9.40
-9.97
-9.07
-6.88
-3.92
-0.96
1.34
2.64
3.01
2.78
2.36
2.06
2.00
2.19
2.57
3.14
3.93
4.98
6.28
7.72
9.10
10.17
10.67
10.38
9.15
6.95
3.83
-0.04
-4.39
-8.95
-13.39
-17.37
-20.61
-22.87
-24.05
-24.14
-23.24
-21.47
-18.98
-15.85
-12.18
-8.11
-3.87
0.23
3.87
6.82
8.99
10.44
11.25
11.49
11.12
10.12
8.55
6.64
4.76
3.35
2.73
3.02
4.07
5.52
6.94
7.95
8.32
7.91
6.72
4.80
2.25
-0.76
-4.05
-7.40
-10.71
-13.93
-17.10
-20.30
-23.52
-26.60
-29.19
-30.86
-31.30
-30.48
-28.70
-26.56
-24.69
-23.58
-23.39
-23.96
-25.02
-26.29
-27.60
-28.78
-29.61
-29.70
-28.65
-26.09
-21.87
-16.07
-8.91
-0.75
8.03
16.99
25.66
33.62
40.58
46.41
51.16
54.92
57.70
59.37
59.68
58.41
55.48
51.02
45.32
38.84
32.15
25.94
20.84
17.33
15.54
15.18
15.64
16.22
16.42
16.04
15.19
14.12
13.01
11.87
10.63
9.24
7.76
6.39
5.29
4.51
3.95
3.40
2.71
1.92
1.20
0.84
1.00
1.67
2.59
3.36
3.60
3.06
1.75
-0.09
-2.13
-4.02
-5.56
-6.62
-7.17
-7.11
-6.32
-4.71
-2.31
0.68
3.83
6.67
8.80
9.99
10.26
9.74
8.66
7.19
5.45
3.58
1.73
0.15
-0.92
-1.32
-1.08
-0.37
0.52
1.36
2.04
2.62
3.21
3.88
4.58
5.16
5.48
5.45
5.08
4.46
3.66
2.77
1.95
1.47
1.71
3.01
5.55
9.20
13.58
18.15
22.43
26.09
28.93
30.87
31.81
31.66
30.40
28.12
25.15
21.88
18.77
16.15
14.22
13.09
12.81
13.43
14.98
17.37
20.33
23.33
25.66
26.63
25.69
22.69
17.84
11.69
4.93
-1.77
-7.88
-12.97
-16.74
-19.03
-19.79
-19.19
-17.56
-15.45
-13.54
-12.48
-12.83
-14.91
-18.76
-24.06
-30.14
-36.11
-41.06
-44.29
-45.48
-44.73
-42.41
-39.02
-34.99
-30.60
-26.07
-21.62
-17.55
-14.21
-11.91
-10.78
-10.75
-11.58
-12.91
-14.40
-15.69
-16.42
-16.17
-14.49
-11.06
-5.73
1.32
9.64
18.56
27.39
35.48
42.30
47.48
50.81
52.37
52.47
51.70
50.76
50.25
50.36
50.67
50.03
46.73
38.92
25.19
5.19
-19.97
-47.85
-75.11
-98.41
-115.12
-123.90
-124.82
-119.13
-108.87
-96.29
-83.45
-71.87
-62.37
-55.11
-49.72
-45.60
-42.18
-38.99
-35.75
-32.28
-28.45
-24.22
-19.64
-14.88
-10.06
-5.25
-0.36
4.77
10.23
15.88
21.38
26.23
29.96
32.37
33.54
33.84
33.74
33.71
33.98
34.50
34.97
34.96
34.08
32.15
29.32
26.07
23.07
21.04
20.51
21.68
24.38
28.08
32.01
35.44
37.78
38.79
38.52
37.21
35.13
32.46
29.28
25.60
21.54
17.36
13.40
10.04
7.56
6.05
5.47
5.73
6.77
8.55
11.05
14.16
17.62
21.03
23.88
25.74
26.31
25.58
23.83
21.53
19.28
17.55
16.58
16.23
16.10
15.56
14.08
11.32
7.29
2.27
-3.35
-9.24
-15.26
-21.31
-27.18
-32.37
-36.18
-37.79
-36.65
-32.59
-25.88
-17.11
-6.94
4.06
15.42
26.71
37.49
47.34
55.97
63.35
69.67
75.26
80.33
84.81
88.34
90.41
90.70
89.23
86.42
82.91
79.29
75.76
72.03
67.34
60.70
51.26
38.61
22.89
4.87
-14.26
-33.13
-50.44
-65.24
-77.02
-85.88
-92.46
-97.69
-102.44
-107.01
-110.81
-112.40
-109.97
-102.19
-89.03
-72.05
-54.08
-38.26
-26.91
-20.79
-18.98
-19.43
-19.91
-18.81
-15.53
-10.40
-4.28
1.99
7.77
12.75
16.81
19.89
21.91
22.86
22.87
22.20
21.23
20.33
19.70
19.38
19.28
19.25
19.21
19.16
19.20
19.42
19.76
19.88
19.14
16.78
12.13
4.89
-4.69
-15.69
-26.74
-36.29
-43.01
-46.20
-45.93
-42.94
-38.36
-33.35
-28.84
-25.42
-23.27
-22.15
-21.41
-20.04
-16.99
-11.44
-3.31
6.58
16.71
25.29
30.99
33.38
32.95
30.78
28.11
25.85
24.42
23.78
23.63
23.59
23.35
22.85
22.24
22.01
22.83
25.43
30.36
37.65
46.62
55.91
63.79
68.79
70.20
68.40
64.70
60.71
57.65
55.81
54.45
52.21
47.63
39.74
28.37
14.22
-1.31
-16.39
-29.19
-38.32
-43.08
-43.61
-40.75
-35.64
-29.36
-22.75
-16.47
-11.19
-7.72
-6.87
-9.05
-13.96
-20.32
-26.03
-28.58
-25.70
-15.98
0.75
23.31
49.44
76.36
101.40
122.74
139.80
153.46
165.58
178.15
192.07
206.28
217.62
221.79
215.02
195.76
165.53
128.36
89.21
52.17
19.20
-9.87
-36.53
-62.68
-90.09
-120.39
-154.81
-193.35
-233.63
-270.19
-295.50
-302.51
-287.83
-253.73
-207.80
-160.08
-119.28
-89.84
-71.38
-60.33
-52.72
-46.21
-40.70
-37.35
-37.11
-39.79
-44.08
-48.36
-51.49
-53.28
-54.10
-54.23
-53.41
-51.19
-47.89
-45.48
-47.39
-57.15
-76.15
-101.96
-128.36
-147.39
-152.40
-140.67
-114.30
-78.94
-41.37
-7.18
20.44
40.52
53.48
60.34
62.45
61.46
59.33
57.96
58.60
61.45
65.58
69.33
71.02
69.66
65.23
58.62
51.15
44.01
37.88
32.76
28.20
23.52
18.22
12.10
5.39
-1.30
-7.18
-11.55
-14.07
-15.10
-15.66
-17.11
-20.63
-26.59
-34.33
-42.32
-48.75
-52.22
-52.18
-48.91
-43.21
-36.04
-28.31
-20.85
-14.55
-10.17
-8.21
-8.50
-10.17
-11.85
-12.10
-9.91
-4.93
2.56
11.82
21.95
32.08
41.53
49.77
56.47
61.43
64.54
65.72
64.90
62.12
57.61
51.77
45.10
38.03
30.78
23.38
15.83
8.24
0.93
-5.59
-10.83
-14.49
-16.51
-17.07
-16.46
-15.06
-13.28
-11.54
-10.21
-9.61
-9.94
-11.27
-13.58
-16.72
-20.47
-24.46
-28.24
-31.40
-33.67
-35.01
-35.61
-35.76
-35.66
-35.36
-34.78
-33.81
-32.47
-30.90
-29.27
-27.69
-26.15
-24.48
-22.56
-20.34
-17.98
-15.72
-13.76
-12.10
-10.59
-8.90
-6.77
-4.12
-1.07
2.09
5.05
7.65
9.88
11.78
13.43
14.82
15.89
16.64
17.15
17.60
18.23
19.18
20.44
21.82
22.96
23.48
23.05
21.51
18.90
15.52
11.73
7.95
4.52
1.60
-0.80
-2.81
-4.61
-6.34
-8.04
-9.60
-10.80
-11.34
-10.98
-9.63
-7.42
-4.69
-1.88
0.66
2.75
4.37
5.59
6.49
7.02
7.13
6.77
6.02
5.10
4.22
3.54
3.05
2.65
2.17
1.48
0.54
-0.65
-2.03
-3.54
-5.10
-6.64
-8.10
-9.43
-10.60
-11.64
-12.68
-13.79
-15.00
-16.18
-17.05
-17.21
-16.25
-13.98
-10.47
-6.14
-1.61
2.50
5.73
7.89
9.06
9.44
9.28
8.77
8.11
7.42
6.88
6.66
6.84
7.36
8.04
8.60
8.80
8.53
7.85
6.99
6.17
5.54
5.08
4.65
4.08
3.27
2.23
1.07
-0.13
-1.38
-2.72
-4.21
-5.77
-7.16
-7.97
-7.86
-6.61
-4.33
-1.36
1.78
4.65
6.93
8.51
9.48
9.96
10.05
9.78
9.15
8.21
7.09
5.99
5.13
4.67
4.62
4.87
5.21
5.43
5.37
5.03
4.49
3.93
3.50
3.29
3.29
3.39
3.50
3.53
3.49
3.42
3.34
3.25
3.13
3.03
3.06
3.43
4.32
5.73
7.43
8.98
9.89
9.80
8.69
6.79
4.52
2.19
-0.07
-2.35
-4.77
-7.37
-10.01
-12.55
-14.97
-17.51
-20.51
-24.23
-28.64
-33.33
-37.78
-41.53
-44.33
-46.13
-46.88
-46.48
-44.84
-42.00
-38.24
-33.98
-29.58
-25.15
-20.55
-15.60
-10.27
-4.79
0.52
5.53
10.48
15.91
22.35
29.95
38.36
46.77
54.32
60.37
64.67
67.33
68.56
68.55
67.37
65.10
61.93
58.28
54.65
51.53
49.16
47.43
45.99
44.32
42.01
38.84
34.86
30.24
25.26
20.13
14.99
10.01
5.45
1.65
-1.08
-2.57
-2.98
-2.75
-2.44
-2.50
-3.07
-3.92
-4.57
-4.51
-3.47
-1.57
0.73
2.81
4.05
4.10
2.84
0.41
-3.05
-7.42
-12.66
-18.68
-25.19
-31.61
-37.15
-40.95
-42.36
-41.11
-37.36
-31.62
-24.63
-17.21
-10.12
-3.97
0.84
4.22
6.39
7.77
8.81
9.76
10.54
10.76
9.90
7.53
3.56
-1.77
-7.99
-14.58
-21.01
-26.86
-31.70
-35.08
-36.66
-36.24
-33.89
-29.97
-24.99
-19.49
-13.93
-8.63
-3.75
0.64
4.67
8.53
12.49
16.75
21.36
26.16
30.83
35.09
38.75
41.91
44.91
48.20
52.19
57.00
62.42
67.89
72.72
76.27
78.22
78.69
78.21
77.65
77.87
79.47
82.33
85.33
86.42
83.12
73.27
55.96
32.00
3.86
-24.97
-50.91
-71.21
-84.46
-90.63
-90.78
-86.59
-79.92
-72.48
-65.67
-60.45
-57.28
-56.21
-56.83
-58.42
-60.07
-60.84
-60.05
-57.45
-53.25
-47.98
-42.29
-36.72
-31.61
-27.02
-22.91
-19.15
-15.57
-12.00
-8.23
-4.09
0.47
5.27
9.81
13.28
14.78
13.65
9.77
3.71
-3.44
-10.38
-15.94
-19.29
-20.07
-18.25
-14.14
-8.38
-1.91
4.09
8.45
10.35
9.58
6.56
2.13
-2.79
-7.52
-11.63
-14.94
-17.32
-18.66
-18.90
-18.07
-16.41
-14.26
-12.09
-10.32
-9.35
-9.49
-10.99
-13.98
-18.38
-23.87
-29.82
-35.33
-39.49
-41.52
-41.00
-37.99
-32.95
-26.54
-19.42
-12.05
-4.61
2.92
10.63
18.54
26.51
34.25
41.36
47.45
52.17
55.16
56.16
54.93
51.44
45.91
38.89
31.07
23.11
15.38
7.86
0.29
-7.57
-15.72
-23.70
-30.76
-36.09
-39.17
-39.85
-38.41
-35.38
-31.32
-26.70
-21.85
-16.92
-11.98
-7.01
-1.92
3.47
9.34
15.80
22.84
30.27
37.80
45.12
52.00
58.34
64.06
69.01
72.89
75.24
75.66
74.05
70.81
66.76
62.89
59.91
57.85
55.96
52.95
47.55
39.15
28.11
15.59
3.15
-7.85
-16.66
-23.24
-28.15
-32.46
-37.51
-44.54
-54.11
-65.47
-76.37
-83.55
-84.03
-76.51
-62.10
-43.89
-25.49
-9.44
3.65
14.73
25.04
34.93
43.41
48.76
49.67
46.08
39.21
30.88
22.53
14.57
6.48
-2.62
-13.12
-24.46
-35.08
-42.99
-46.55
-45.22
-39.89
-32.66
-26.13
-22.46
-22.57
-25.90
-30.72
-34.91
-36.81
-35.75
-32.09
-26.83
-21.03
-15.47
-10.45
-6.01
-2.05
1.58
5.12
9.03
13.95
20.51
28.96
38.94
49.41
58.99
66.40
70.90
72.46
71.61
69.12
65.56
61.16
55.73
48.94
40.56
30.62
19.56
8.20
-2.38
-11.01
-16.64
-18.70
-17.27
-13.24
-8.09
-3.50
-0.75
-0.25
-1.35
-2.53
-2.02
1.52
8.47
18.10
28.92
39.15
47.38
52.91
55.89
57.09
57.54
58.23
59.82
62.55
66.23
70.45
74.63
78.25
80.94
82.55
83.13
82.88
82.01
80.67
78.92
76.71
73.99
70.57
66.08
59.89
51.10
38.91
22.94
3.68
-17.50
-38.62
-57.62
-72.96
-83.96
-90.82
-94.53
-96.55
-98.60
-102.32
-108.85
-118.57
-130.88
-144.36
-157.18
-167.64
-174.60
-177.55
-176.37
-171.05
-161.33
-146.87
-127.50
-103.61
-76.42
-47.83
-19.97
5.40
27.47
46.48
63.38
79.23
94.47
108.72
120.90
129.72
134.12
133.56
127.99
117.61
102.84
84.21
62.56
39.02
14.82
-8.96
-31.64
-53.02
-73.22
-92.30
-109.96
-125.38
-137.34
-144.56
-146.11
-141.71
-131.75
-117.14
-98.93
-78.05
-55.21
-31.06
-6.31
18.12
41.13
61.65
78.80
91.96
100.80
105.14
105.02
100.65
92.45
81.02
67.08
51.48
35.23
19.55
5.75
-4.95
-11.76
-14.66
-14.52
-13.00
-12.16
-14.02
-20.05
-30.75
-45.36
-61.97
-77.91
-90.57
-98.22
-100.53
-98.54
-94.09
-89.01
-84.44
-80.56
-76.84
-72.58
-67.25
-60.77
-53.41
-45.46
-37.07
-28.03
-17.93
-6.42
6.53
20.47
34.45
47.31
57.91
65.37
69.07
68.67
64.09
55.63
44.13
30.99
17.88
6.27
-3.10
-10.44
-16.72
-23.16
-30.51
-38.68
-46.56
-52.27
-53.62
-48.71
-36.55
-17.41
7.05
34.11
60.57
83.65
101.73
114.85
124.56
133.38
143.69
156.69
171.63
185.90
195.74
197.53
189.09
170.46
143.97
113.54
83.66
58.25
39.84
29.03
24.49
23.38
22.13
17.50
7.47
-8.30
-28.58
-51.12
-73.42
-93.37
-109.55
-121.46
-129.42
-134.26
-136.94
-138.09
-137.74
-135.44
-130.58
-122.93
-112.90
-101.52
-90.09
-79.66
-70.78
-63.45
-57.34
-52.06
-47.32
-42.99
-39.06
-35.54
-32.41
-29.54
-26.64
-23.29
-19.01
-13.39
-6.36
1.76
10.18
17.81
23.59
26.69
26.83
24.32
20.00
15.04
10.58
7.30
5.08
2.85
-1.19
-9.03
-21.96
-40.00
-61.58
-83.93
-103.84
-118.62
-126.74
-128.01
-123.32
-114.18
-102.27
-89.18
-76.28
-64.67
-55.08
-47.83
-42.87
-39.74
-37.69
-35.85
-33.51
-30.31
-26.34
-22.01
-17.71
-13.47
-8.77
-2.87
4.84
14.35
24.84
35.00
43.57
49.83
53.78
55.91
56.74
56.56
55.36
53.06
49.81
46.08
42.52
39.71
37.88
36.86
36.21
35.41
34.13
32.25
29.86
27.14
24.27
21.48
18.92
16.76
15.07
13.81
12.80
11.82
10.61
9.01
6.91
4.32
1.38
-1.62
-4.18
-5.63
-5.36
-2.95
1.50
7.38
13.73
19.54
24.16
27.38
29.39
30.54
31.05
30.90
29.94
28.08
25.43
22.35
19.34
16.86
15.15
14.22
13.92
14.02
14.31
14.62
14.78
14.64
14.07
12.96
11.33
9.26
6.94
4.60
2.41
0.39
-1.56
-3.68
-6.19
-9.14
-12.29
-15.08
-16.79
-16.72
-14.50
-10.24
-4.50
1.93
8.24
13.86
18.51
22.05
24.42
25.51
25.23
23.66
21.11
18.11
15.24
12.94
11.37
10.40
9.76
9.17
8.47
7.61
6.62
5.56
4.48
3.49
2.69
2.19
1.99
1.96
1.89
1.49
0.50
-1.24
-3.75
-6.96
-10.60
-14.23
-17.20
-18.82
-18.53
-16.07
-11.72
-6.11
-0.15
5.35
9.81
13.06
15.19
16.42
16.98
17.01
16.60
15.81
14.71
13.42
12.04
10.66
9.35
8.19
7.21
6.46
5.89
5.44
4.99
4.42
3.64
2.57
1.25
-0.23
-1.76
-3.24
-4.62
-5.95
-7.35
-8.94
-10.78
-12.79
-14.73
-16.20
-16.73
-15.90
-13.52
-9.71
-4.91
0.24
5.12
9.20
12.26
14.25
15.28
15.49
15.00
13.96
12.58
11.09
9.71
8.55
7.66
6.97
6.42
5.99
5.65
5.39
5.12
4.72
4.03
2.95
1.44
-0.42
-2.47
-4.52
-6.37
-7.89
-9.06
-9.92
-10.65
-11.41
-12.36
-13.51
-14.69
-15.52
-15.51
-14.20
-11.34
-7.03
-1.77
3.72
8.68
12.61
15.35
16.99
17.78
17.93
17.57
16.74
15.56
14.24
13.02
12.09
11.49
11.13
10.83
10.46
9.97
9.36
8.63
7.69
6.41
4.70
2.58
0.18
-2.28
-4.58
-6.57
-8.16
-9.34
-10.15
-10.68
-11.08
-11.55
-12.22
-13.04
-13.75
-13.88
-12.98
-10.78
-7.38
-3.20
1.19
5.22
8.55
11.03
12.69
13.56
13.68
13.08
11.87
10.27
8.63
7.29
6.53
6.41
6.81
7.51
8.26
8.91
9.40
9.74
9.89
9.77
9.22
8.15
6.59
4.74
2.87
1.22
-0.12
-1.20
-2.19
-3.28
-4.62
-6.29
-8.26
-10.37
-12.30
-13.59
-13.75
-12.48
-9.82
-6.17
-2.20
1.43
4.29
6.32
7.72
8.76
9.59
10.21
10.51
10.45
10.08
9.59
9.17
8.89
8.69
8.43
8.05
7.60
7.23
7.07
7.14
7.35
7.46
7.25
6.59
5.48
4.05
2.47
0.92
-0.47
-1.67
-2.76
-3.90
-5.31
-7.16
-9.41
-11.81
-13.89
-15.11
-15.09
-13.72
-11.26
-8.19
-5.08
-2.34
-0.18
1.42
2.60
3.54
4.40
5.24
6.02
6.69
7.17
7.45
7.57
7.62
7.67
7.74
7.77
7.65
7.25
6.48
5.36
4.04
2.82
2.10
2.17
3.12
4.68
6.26
7.11
6.53
4.21
0.25
-4.75
-9.93
-14.35
-17.18
-17.92
-16.45
-12.97
-7.99
-2.17
3.84
9.54
14.56
18.72
21.85
23.73
24.11
22.76
19.63
15.00
9.56
4.34
0.49
-1.02
0.30
4.31
10.21
16.80
22.76
27.00
28.92
28.44
25.86
21.75
16.67
11.13
5.60
0.49
-3.83
-7.09
-9.20
-10.31
-10.81
-11.14
-11.72
-12.75
-14.16
-15.64
-16.76
-17.11
-16.43
-14.76
-12.30
-9.46
-6.64
-4.19
-2.28
-0.95
-0.13
0.22
0.17
-0.31
-1.22
-2.50
-3.97
-5.35
-6.33
-6.57
-5.85
-4.03
-1.16
2.47
6.29
9.53
11.36
11.12
8.53
3.79
-2.47
-9.36
-15.88
-21.07
-24.19
-24.78
-22.85
-18.89
-13.81
-8.74
-4.66
-2.13
-1.14
-1.22
-1.70
-1.96
-1.64
-0.66
0.86
2.69
4.54
6.12
7.18
7.57
7.25
6.31
4.95
3.45
2.03
0.89
0.12
-0.23
-0.20
0.14
0.65
1.17
1.62
1.94
2.17
2.38
2.61
2.88
3.15
3.39
3.54
3.64
3.70
3.74
3.71
3.50
2.96
2.06
0.89
-0.27
-1.00
-0.89
0.27
2.44
5.33
8.52
11.63
14.46
17.01
19.41
21.77
24.10
26.35
28.43
30.32
32.16
34.14
36.52
39.41
42.77
46.37
49.85
52.79
54.81
55.61
55.03
53.18
50.51
47.80
45.92
45.57
46.91
49.48
52.31
54.30
54.64
53.16
50.34
47.16
44.85
44.54
47.03
52.62
61.07
71.63
83.22
94.73
105.36
114.90
123.74
132.59
141.88
151.17
158.78
162.06
158.16
144.90
121.53
88.79
48.72
4.29
-41.01
-83.40
-119.29
-145.94
-162.22
-169.13
-169.62
-167.56
-166.57
-168.79
-174.42
-181.99
-189.12
-193.50
-193.58
-188.97
-180.45
-169.67
-158.59
-148.73
-140.55
-133.33
-125.54
-115.67
-102.99
-88.04
-72.56
-58.84
-48.86
-43.40
-41.79
-42.21
-42.23
-39.55
-32.54
-20.75
-5.28
11.25
25.18
32.60
30.57
19.42
2.60
-12.91
-18.49
-7.87
19.67
59.27
103.00
143.22
174.95
197.65
213.20
223.37
228.79
229.03
223.35
211.51
194.44
174.15
152.72
131.31
110.25
88.63
64.70
37.01
5.49
-27.95
-59.78
-86.06
-103.73
-111.75
-111.37
-105.38
-96.95
-88.54
-81.40
-75.78
-71.62
-69.06
-68.40
-69.66
-71.88
-72.80
-69.67
-60.40
-45.10
-26.70
-10.23
-1.27
-4.10
-20.57
-49.78
-88.27
-130.61
-170.03
-199.47
-213.02
-207.67
-184.45
-148.34
-106.55
-66.04
-31.34
-3.89
17.12
33.07
44.72
52.12
55.15
54.06
49.56
42.19
31.86
18.03
0.51
-19.86
-40.53
-57.84
-68.09
-69.07
-60.89
-46.13
-28.90
-13.54
-3.30
0.46
-1.70
-7.87
-15.69
-23.20
-29.24
-33.51
-36.23
-37.89
-38.84
-39.27
-39.12
-38.25
-36.43
-33.45
-29.19
-23.65
-16.89
-9.03
-0.22
9.37
19.52
29.94
40.29
50.22
59.39
67.37
73.51
76.96
76.81
72.41
63.69
51.40
36.90
21.79
7.41
-5.44
-16.56
-26.17
-34.63
-42.26
-49.02
-54.56
-58.24
-59.29
-57.12
-51.51
-42.82
-31.89
-19.93
-8.15
2.40
10.90
16.87
20.19
21.33
21.19
20.87
21.14
22.22
23.56
23.88
21.64
15.56
5.22
-8.76
-24.87
-41.07
-54.87
-63.90
-66.53
-62.41
-52.66
-39.22
-24.44
-10.35
1.85
12.46
22.94
34.90
49.04
64.75
80.71
95.58
108.75
120.36
131.36
142.44
152.96
160.75
161.65
152.76
134.17
110.48
84.59
57.54
29.66
2.52
-20.55
-34.98
-36.60
-24.29
-1.38
24.76
46.14
57.12
56.16
45.44
29.06
11.00
-6.37
-22.45
-37.78
-52.41
-65.56
-76.02
-82.91
