1624787666.00
64.000000
-0.00
-0.00
-0.00
-0.00
-0.00
-0.00
-0.00
-0.00
-0.00
-0.00
0.00
0.01
0.01
-0.00
-0.03
-0.05
-0.05
0.00
0.13
0.36
0.66
1.01
1.37
1.72
2.06
2.40
2.79
3.24
3.80
4.43
5.09
5.72
6.31
6.86
7.43
8.11
8.94
10.04
11.33
12.70
14.02
15.20
16.26
17.33
18.64
20.36
22.74
25.64
28.82
31.97
34.88
37.59
40.38
43.69
47.89
53.44
60.06
67.25
74.41
81.11
87.32
93.46
100.28
108.42
118.62
130.53
143.41
156.26
168.30
179.29
189.70
200.92
211.97
225.50
242.51
263.18
286.13
307.88
323.52
328.02
318.07
293.37
257.08
213.78
168.01
122.63
78.18
33.84
-11.25
-56.84
-101.34
-142.43
-178.63
-209.91
-237.24
-262.48
-287.06
-311.95
-337.47
-363.28
-388.62
-411.97
-431.15
-442.78
-444.02
-433.23
-411.01
-380.47
-345.77
-311.22
-279.44
-251.41
-226.23
-202.59
-179.67
-157.35
-136.62
-118.20
-102.62
-89.13
-76.62
-63.72
-49.82
-35.78
-22.80
-12.75
-6.08
-2.47
0.15
3.79
9.66
17.65
25.75
32.08
34.91
34.72
32.94
32.01
33.64
37.62
42.62
45.90
45.92
42.08
36.14
30.46
27.17
27.24
29.42
32.04
32.91
31.71
28.94
26.48
25.93
27.46
30.34
32.27
31.90
28.35
22.97
17.63
14.33
14.06
15.90
18.46
19.69
19.21
17.26
15.51
15.43
17.29
20.47
22.84
23.03
20.01
14.88
9.38
5.54
4.66
6.24
9.24
11.69
12.90
12.65
12.16
12.72
14.76
18.02
20.67
21.37
18.91
14.09
8.44
4.06
2.52
3.58
6.34
8.70
9.73
8.97
7.63
7.16
8.30
11.03
13.58
14.50
12.29
7.48
1.40
-3.77
-6.27
-6.05
-3.77
-1.47
-0.15
-0.46
-1.40
-1.70
-0.59
1.98
4.44
5.46
3.55
-0.89
-6.79
-12.12
-15.11
-15.38
-13.21
-10.32
-7.80
-6.66
-6.39
-6.00
-4.54
-1.50
2.06
4.93
5.34
3.10
-1.26
-5.82
-8.53
-8.58
-6.05
-2.88
-0.68
-1.00
-3.41
-6.46
-8.28
-7.40
-4.29
-0.15
2.71
3.21
1.08
-2.21
-4.61
-4.92
-2.71
0.43
2.97
3.18
1.22
-1.67
-3.59
-2.85
0.37
5.12
9.14
11.24
10.89
9.36
8.52
9.53
12.80
16.71
19.68
19.88
17.45
13.62
10.53
10.13
12.61
17.25
21.77
24.70
25.07
23.77
22.44
22.34
24.17
26.65
28.40
27.59
24.13
18.97
14.10
11.57
11.88
14.78
18.35
21.27
22.31
21.91
21.18
21.02
22.08
23.28
23.55
21.33
16.64
10.36
4.41
0.79
0.11
2.24
5.30
7.87
8.60
7.83
6.75
6.54
8.03
10.24
11.87
10.97
7.19
1.17
-5.01
-9.00
-9.79
-7.31
-3.47
0.08
1.68
1.51
0.74
0.75
2.58
5.37
7.88
8.03
5.32
0.24
-5.14
-8.41
-8.49
-5.33
-1.04
2.47
3.33
1.75
-0.83
-2.47
-1.61
1.29
5.03
7.21
6.73
3.39
-1.23
-4.92
-6.36
-4.97
-2.31
0.07
0.32
-1.59
-4.62
-6.98
-7.02
-4.82
-1.16
1.79
2.88
1.46
-1.33
-3.62
-4.14
-2.22
0.75
3.29
3.45
1.05
-3.02
-6.86
-8.51
-7.57
-4.39
-0.90
1.65
2.28
1.61
1.00
1.46
3.56
6.11
7.86
7.13
3.92
-0.86
-5.29
-7.38
-6.67
-3.40
0.53
3.79
5.18
5.14
4.87
5.38
7.36
9.76
11.38
10.47
6.88
1.37
-4.05
-7.25
-7.44
-4.70
-1.01
2.04
2.94
2.03
0.64
0.21
1.82
4.61
7.28
7.72
5.37
0.64
-4.55
-7.95
-8.55
-6.18
-2.73
0.18
0.91
-0.28
-2.07
-2.79
-1.13
2.24
6.00
7.81
6.69
2.69
-2.37
-6.11
-7.18
-5.22
-2.07
0.41
0.25
-2.51
-6.51
-9.64
-10.01
-7.66
-3.51
0.07
1.76
0.86
-1.44
-3.30
-3.46
-1.36
1.55
3.77
3.51
0.72
-3.58
-7.49
-9.11
-8.10
-4.80
-1.07
1.89
3.04
2.91
2.73
3.45
5.70
8.37
10.30
9.74
6.60
1.66
-3.12
-5.62
-5.17
-1.95
2.03
5.19
6.07
5.06
3.53
2.90
4.19
6.48
8.44
8.02
4.77
-0.70
-6.29
-9.63
-9.75
-6.67
-2.50
0.97
2.04
1.06
-0.54
-1.01
0.90
4.32
7.77
8.82
6.67
1.69
-3.95
-7.66
-8.13
-5.24
-1.17
1.96
2.14
-0.42
-4.14
-6.79
-6.52
-3.61
0.71
3.90
4.63
2.45
-1.18
-4.12
-4.99
-3.26
-0.48
1.71
1.40
-1.41
-5.60
-9.19
-10.28
-8.68
-4.95
-1.15
1.51
2.19
1.68
1.40
2.29
4.73
7.32
8.70
7.22
3.03
-2.67
-7.68
-9.86
-8.67
-4.53
0.38
4.37
5.99
5.67
4.76
4.62
6.19
8.53
10.33
9.61
6.03
0.28
-5.57
-9.18
-9.60
-6.79
-2.68
1.11
3.02
3.26
2.99
3.50
5.71
8.66
11.01
10.70
7.30
1.40
-4.81
-8.83
-9.48
-6.67
-2.50
1.00
1.88
0.25
-2.47
-4.30
-3.57
-0.70
3.07
5.27
4.74
1.27
-3.46
-7.14
-8.38
-6.66
-3.65
-1.03
-0.69
-2.64
-5.79
-8.30
-8.48
-6.37
-2.72
0.40
1.87
1.06
-0.94
-2.46
-2.35
-0.01
3.20
5.89
6.24
4.10
0.31
-3.34
-4.95
-4.09
-1.01
2.44
5.02
5.65
4.85
3.89
3.79
5.28
7.30
8.70
7.78
4.41
-0.66
-5.56
-8.29
-8.20
-5.37
-1.63
1.63
3.08
3.08
2.80
3.38
5.59
8.39
10.46
9.83
6.20
0.24
-5.88
-9.78
-10.40
-7.68
-3.57
0.18
1.84
1.57
0.53
0.21
1.76
4.46
7.14
7.72
5.58
0.95
-4.34
-8.05
-9.02
-6.94
-3.54
-0.46
0.46
-0.77
-3.07
-4.75
-4.27
-1.90
1.48
3.69
3.68
1.06
-2.82
-5.92
-6.92
-5.19
-2.21
0.44
0.79
-1.34
-5.08
-8.56
-9.88
-8.66
-5.27
-1.58
1.18
2.03
1.58
1.16
1.72
3.89
6.46
8.19
7.41
4.11
-0.75
-5.17
-7.11
-6.05
-2.30
2.11
5.69
7.16
6.96
6.37
6.54
8.23
10.37
11.72
10.46
6.44
0.47
-5.35
-8.79
-9.04
-6.21
-2.33
0.94
2.01
1.20
-0.17
-0.61
1.01
3.87
6.69
7.32
5.16
0.58
-4.48
-7.75
-8.18
-5.66
-2.14
0.69
1.15
-0.44
-2.69
-3.81
-2.41
0.89
4.84
7.05
6.52
3.10
-1.57
-5.22
-6.52
-4.95
-2.12
0.25
0.22
-2.28
-6.11
-9.31
-9.98
-7.99
-4.04
-0.29
1.98
1.96
0.58
-0.54
-0.33
1.77
4.39
6.22
5.59
2.54
-1.92
-5.92
-7.64
-6.76
-3.61
-0.07
2.68
3.60
3.27
2.89
3.42
5.47
7.89
9.48
8.52
4.93
-0.42
-5.54
-8.29
-8.01
-4.89
-0.93
2.31
3.40
2.74
1.67
1.54
3.35
6.13
8.57
8.62
5.83
0.72
-4.68
-8.11
-8.55
-5.93
-2.15
1.12
2.25
1.50
0.17
-0.16
1.68
4.90
8.14
9.10
7.04
2.25
-3.24
-7.01
-7.82
-5.51
-2.15
0.34
0.05
-2.75
-6.50
-9.04
-8.58
-5.45
-0.84
2.72
3.92
2.27
-0.85
-3.37
-4.02
-2.22
0.53
2.72
2.58
0.14
-3.56
-6.66
-7.45
-5.84
-2.41
0.85
2.83
2.74
1.49
0.57
1.02
3.37
6.26
8.31
7.70
4.40
-0.64
-5.33
-7.58
-6.77
-3.20
1.09
4.54
5.77
5.19
4.17
4.01
5.63
8.05
9.94
9.31
5.80
0.09
-5.73
-9.34
-9.80
-7.08
-3.16
0.33
1.80
1.50
0.67
0.73
2.66
5.58
8.16
8.30
5.51
0.30
-5.20
-8.60
-8.82
-5.86
-1.86
1.24
1.62
-0.42
-3.35
-5.15
-4.25
-1.15
2.85
5.28
5.03
1.91
-2.45
-5.82
-6.85
-5.08
-2.13
0.32
0.41
-1.83
-5.25
-7.93
-8.12
-5.86
-1.94
1.46
3.16
2.52
0.64
-0.75
-0.53
1.76
4.62
6.53
5.72
2.24
-2.75
-7.17
-8.94
-7.70
-3.88
0.41
3.71
4.84
4.35
3.58
3.63
5.24
7.34
8.76
7.77
4.28
-0.90
-5.85
-8.53
-8.28
-5.22
-1.21
2.31
3.97
4.10
3.88
4.47
6.68
9.47
11.51
10.81
7.06
1.02
-5.08
-8.79
-9.09
-6.02
-1.74
1.90
3.14
2.23
0.55
-0.26
1.05
3.74
6.53
7.23
5.13
0.47
-4.86
-8.55
-9.43
-7.22
-3.72
-0.65
0.20
-1.07
-3.21
-4.43
-3.22
0.02
4.13
6.75
6.75
3.89
-0.25
-3.42
-4.27
-2.35
0.62
2.85
2.42
-0.59
-4.79
-8.03
-8.41
-6.01
-1.84
1.64
3.08
1.85
-0.72
-2.65
-2.67
-0.31
2.79
4.95
4.29
0.90
-3.96
-8.07
-9.36
-7.55
-3.28
1.16
4.22
4.79
3.65
2.45
2.56
4.84
8.07
10.79
10.92
8.11
3.16
-1.83
-4.51
-3.99
-0.32
4.58
9.17
11.99
13.26
13.88
14.55
15.62
15.89
14.44
10.23
4.04
-2.70
-8.00
-10.45
-10.38
-8.80
-7.91
-8.79
-11.87
-15.70
-18.12
-17.37
-12.59
-5.25
2.45
7.48
8.59
5.94
1.71
-1.24
-1.31
1.93
6.50
10.44
11.79
10.74
8.71
7.49
8.44
10.85
13.43
14.08
12.30
8.53
4.63
2.39
2.12
3.21
3.46
1.61
-2.99
-8.89
-13.97
-16.46
-15.63
-12.94
-10.19
-9.72
-12.01
-16.53
-21.21
-23.79
-23.21
-19.34
-14.06
-9.17
-6.63
-6.55
-7.91
-8.98
-8.15
-5.57
-2.13
-0.04
-0.40
-3.52
-7.84
-11.16
-12.04
-10.00
-6.78
-4.32
-4.74
-8.08
-12.93
-16.78
-17.18
-13.64
-6.96
0.14
5.50
7.65
7.36
6.70
7.54
11.03
15.81
19.87
20.57
17.33
11.33
5.35
2.40
3.47
7.98
13.12
16.54
16.61
14.06
10.90
8.91
9.13
10.37
11.09
9.38
5.23
-0.20
-4.81
-6.72
-5.82
-2.90
-0.23
0.87
-0.34
-2.74
-4.52
-4.38
-1.81
1.59
3.96
3.09
-1.24
-7.85
-14.06
-16.99
-15.49
-9.80
-2.48
4.00
7.43
7.87
6.88
6.44
8.14
11.36
14.64
15.54
13.11
7.61
0.81
-5.06
-9.00
-10.64
-11.24
-11.60
-12.50
-13.24
-12.71
-10.09
-5.09
0.84
6.16
8.81
8.30
5.00
0.62
-2.88
-4.63
-4.37
-3.55
-3.21
-4.40
-6.50
-8.14
-7.95
-5.09
-0.63
3.88
6.09
5.16
1.32
-3.47
-6.69
-6.95
-3.89
0.52
4.21
5.03
3.05
-0.14
-2.17
-1.03
2.89
7.92
10.94
10.26
5.70
-0.42
-4.87
-5.66
-2.38
2.60
6.74
7.78
5.99
3.24
1.81
3.21
6.49
9.88
10.79
8.49
3.51
-1.85
-5.18
-5.54
-3.09
0.09
2.42
2.71
1.69
0.89
1.85
5.33
10.17
14.66
16.37
14.36
8.62
1.01
-5.95
-10.41
-11.18
-9.29
-6.17
-4.09
-3.86
-5.18
-6.67
-6.55
-4.51
-1.04
1.76
2.62
0.79
-2.54
-5.34
-6.23
-4.60
-1.93
0.17
-0.13
-2.82
-6.76
-10.00
-10.73
-8.89
-5.21
-1.82
-0.05
-0.66
-2.66
-4.30
-4.34
-2.10
1.02
3.41
3.09
-0.08
-4.85
-8.87
-9.82
-7.29
-2.10
3.03
6.04
5.66
2.68
-0.82
-3.01
-2.68
-0.76
1.42
2.03
0.72
-1.86
-4.35
-5.31
-4.62
-2.47
-0.29
1.23
1.60
1.64
2.52
4.80
8.53
11.90
13.21
10.83
5.33
-1.10
-5.33
-4.80
0.36
8.18
14.76
17.31
14.91
9.46
4.24
1.74
2.85
5.57
7.38
5.76
0.61
-6.32
-12.11
-14.27
-12.50
-7.92
-3.44
-1.07
-1.86
-4.26
-5.66
-3.91
1.79
9.26
15.55
17.38
13.91
6.53
-1.52
-6.91
-8.37
-6.30
-3.32
-1.44
-1.83
-3.17
-3.11
0.13
6.91
14.76
20.65
21.45
16.72
8.06
-1.09
-7.39
-9.53
-7.77
-4.48
-1.45
0.02
0.73
2.12
5.26
10.33
15.47
18.71
17.88
12.79
4.53
-4.43
-11.53
-15.67
-16.78
-16.65
-16.69
-18.32
-21.22
-24.18
-25.84
-24.94
-21.90
-17.58
-14.03
-12.28
-12.71
-14.08
-14.43
-12.63
-8.29
-3.19
0.90
2.26
1.42
0.30
1.17
5.55
12.22
18.80
21.89
20.14
14.04
6.37
0.56
-1.53
0.39
4.05
7.20
7.82
6.10
3.69
2.44
3.67
6.44
9.08
9.14
5.92
0.08
-5.97
-9.51
-9.32
-5.50
-0.36
3.93
5.45
4.44
2.47
1.42
2.71
5.59
8.56
9.17
6.59
1.26
-4.55
-8.10
-8.03
-4.27
0.87
5.13
6.38
4.75
1.82
-0.29
0.14
2.61
5.74
7.01
5.36
0.87
-4.51
-8.25
-8.99
-6.41
-2.42
1.05
2.09
0.79
-1.51
-2.94
-1.94
0.98
4.54
6.31
5.21
1.20
-3.89
-7.59
-8.47
-6.05
-2.11
1.46
2.68
1.51
-0.81
-2.40
-1.62
1.14
4.63
6.38
5.24
1.16
-3.96
-7.54
-8.08
-5.17
-0.78
3.06
4.28
2.88
0.27
-1.53
-0.84
1.94
5.50
7.31
6.22
2.18
-2.89
-6.45
-7.04
-4.29
-0.18
3.28
4.03
2.17
-0.84
-2.90
-2.29
0.56
4.34
6.46
5.76
2.10
-2.67
-6.09
-6.73
-4.20
-0.40
2.76
3.30
1.33
-1.78
-3.96
-3.52
-0.75
3.14
5.68
5.63
2.70
-1.50
-4.68
-5.43
-3.24
0.21
3.15
3.62
1.60
-1.70
-4.35
-4.56
-2.41
1.20
4.00
4.73
2.82
-0.51
-3.30
-4.23
-2.61
0.19
2.74
3.20
1.41
-1.75
-4.56
-5.33
-3.94
-0.94
1.66
2.74
1.58
-0.81
-2.76
-3.12
-1.31
1.28
3.20
2.67
-0.29
-4.46
-7.79
-8.36
-6.09
-1.83
2.00
3.90
3.06
0.57
-1.62
-2.17
-0.39
2.30
4.37
4.01
1.24
-2.75
-5.97
-6.56
-4.49
-0.62
2.73
4.16
2.97
0.33
-1.79
-2.04
0.22
3.46
6.03
5.90
2.99
-1.61
-5.76
-7.39
-6.10
-2.42
1.48
4.20
4.70
3.73
2.77
2.84
4.50
6.43
7.33
5.61
1.46
-3.91
-8.44
-10.17
-8.86
-5.12
-1.10
1.77
2.48
1.76
1.06
1.43
3.43
5.76
7.09
5.75
1.83
-3.53
-8.23
-10.19
-9.00
-5.14
-0.76
2.59
3.72
3.18
2.36
2.38
3.98
6.07
7.45
6.46
3.10
-1.69
-5.98
-7.87
-6.95
-3.61
0.17
3.07
4.00
3.56
3.01
3.36
5.21
7.40
8.74
7.58
3.98
-1.10
-5.65
-7.67
-6.69
-3.10
0.94
3.86
4.34
2.95
1.17
0.40
1.59
3.74
5.53
4.97
1.75
-3.41
-8.50
-11.31
-11.14
-8.14
-4.34
-1.26
-0.23
-0.75
-1.47
-1.16
0.96
3.73
5.79
5.23
1.87
-3.40
-8.45
-11.04
-10.43
-6.81
-2.23
1.74
3.67
3.87
3.50
3.65
5.16
7.12
8.50
7.67
4.50
-0.34
-5.10
-7.86
-7.97
-5.45
-2.02
1.07
2.52
2.55
2.17
2.34
3.82
5.69
6.87
5.64
1.85
-3.73
-9.03
-11.79
-11.16
-7.29
-2.30
1.97
3.82
3.45
2.18
1.48
2.55
4.68
6.68
6.57
3.85
-1.00
-6.11
-9.25
-9.47
-6.65
-2.59
1.19
3.16
3.49
3.28
3.72
5.69
8.25
10.14
9.39
5.63
-0.45
-6.71
-10.66
-11.18
-8.13
-3.49
0.91
3.19
3.34
2.46
1.96
3.01
4.98
6.73
6.28
3.15
-2.14
-7.55
-10.68
-10.50
-6.98
-2.18
2.06
4.01
3.84
2.88
2.64
4.23
6.78
8.90
8.43
4.86
-1.14
-7.29
-11.00
-11.12
-7.63
-2.72
1.65
3.58
3.24
2.02
1.57
3.19
6.09
8.88
9.24
6.41
0.78
-5.52
-9.84
-10.81
-8.09
-3.65
0.55
2.47
2.10
0.71
0.06
1.60
4.68
7.88
8.67
6.09
0.39
-6.20
-10.81
-11.84
-8.92
-4.12
0.42
2.54
2.19
0.69
-0.14
1.11
3.83
6.64
7.16
4.63
-0.61
-6.37
-10.02
-10.19
-6.63
-1.39
3.51
5.99
6.00
4.68
3.73
4.58
6.69
8.84
8.76
5.67
-0.09
-6.29
-10.25
-10.57
-7.06
-1.96
2.46
4.06
2.89
0.46
-1.18
-0.37
2.30
5.38
6.29
3.97
-1.43
-7.78
-12.33
-13.46
-10.68
-5.81
-0.83
2.12
2.84
2.28
2.05
3.51
6.19
8.91
9.40
6.77
1.18
-5.25
-9.76
-10.66
-7.52
-2.43
2.24
3.98
2.51
-0.83
-3.76
-4.15
-1.96
1.77
4.47
4.72
2.01
-2.13
-5.35
-6.13
-3.82
-0.04
3.41
4.47
3.01
0.16
-2.12
-2.07
0.20
3.71
6.09
6.07
3.19
-1.09
-4.50
-5.52
-3.48
0.02
3.21
3.93
1.94
-1.68
-4.94
-5.84
-4.20
-0.72
2.30
3.49
2.05
-0.93
-3.53
-4.39
-2.78
-0.08
2.19
2.17
-0.24
-3.95
-7.03
-7.64
-5.70
-2.01
1.16
2.44
1.13
-1.64
-3.91
-4.33
-2.22
0.97
3.63
3.82
1.44
-2.42
-5.72
-6.47
-4.45
-0.35
3.53
5.72
5.25
3.04
0.84
-0.06
1.17
3.35
5.24
5.08
2.78
-0.83
-4.04
-5.14
-3.95
-0.96
1.90
3.47
2.96
1.24
-0.12
-0.03
2.09
4.85
6.84
6.23
3.00
-1.77
-6.05
-7.77
-6.59
-3.01
0.86
3.59
4.17
3.32
2.46
2.61
4.33
6.34
7.40
5.96
2.23
-2.64
-6.64
-7.91
-6.30
-2.46
1.42
3.95
4.17
2.87
1.61
1.53
3.25
5.50
6.90
5.74
2.02
-3.18
-7.82
-9.90
-9.03
-5.71
-2.02
0.63
1.21
0.44
-0.23
0.23
2.36
4.80
6.16
4.74
0.69
-4.75
-9.41
-11.24
-9.92
-6.03
-1.76
1.43
2.55
2.30
2.11
2.95
5.25
7.62
8.71
6.91
2.53
-3.11
-7.79
-9.46
-7.90
-3.80
0.52
3.55
4.22
3.28
2.25
2.21
3.77
5.69
6.69
5.17
1.25
-3.94
-8.42
-10.25
-9.13
-5.60
-1.75
1.00
1.60
0.76
-0.03
0.36
2.59
5.36
7.25
6.46
2.94
-2.21
-6.89
-8.96
-7.97
-4.38
-0.34
2.69
3.58
2.97
2.29
2.59
4.43
6.56
7.70
6.23
2.26
-3.07
-7.71
-9.70
-8.69
-5.19
-1.29
1.60
2.40
1.77
1.10
1.46
3.43
5.79
7.24
6.07
2.35
-2.83
-7.37
-9.22
-8.00
-4.25
-0.22
2.50
2.78
1.33
-0.24
-0.64
0.93
3.25
4.94
4.19
0.92
-3.82
-8.00
-9.59
-8.23
-4.46
-0.43
2.43
3.09
2.32
1.61
2.07
4.29
6.93
8.59
7.50
3.69
-1.72
-6.61
-8.85
-7.98
-4.44
-0.37
2.65
3.41
2.46
1.24
0.93
2.30
4.25
5.54
4.44
0.91
-4.09
-8.54
-10.43
-9.31
-5.63
-1.50
1.60
2.50
1.81
0.97
1.15
3.06
5.55
7.31
6.54
3.14
-1.97
-6.76
-9.15
-8.53
-5.18
-1.12
2.15
3.33
2.84
1.98
1.87
3.33
5.33
6.70
5.72
2.31
-2.67
-7.24
-9.35
-8.46
-4.88
-0.69
2.56
3.57
2.86
1.83
1.74
3.41
5.71
7.27
6.18
2.29
-3.38
-8.58
-10.92
-9.73
-5.38
-0.19
3.99
5.65
5.27
4.31
4.13
5.66
7.80
9.20
7.95
3.90
-2.04
-7.65
-10.64
-10.25
-6.71
-2.18
1.64
3.21
2.89
1.99
1.88
3.53
6.02
8.07
7.65
4.36
-1.18
-6.90
-10.40
-10.64
-7.52
-2.94
1.37
3.66
4.01
3.48
3.35
4.67
6.65
8.13
7.18
3.49
-2.25
-7.89
-11.06
-10.84
-7.35
-2.75
1.08
2.51
1.87
0.64
0.40
2.27
5.28
7.93
7.98
4.86
-0.77
-6.65
-10.19
-10.23
-6.81
-2.12
1.79
3.07
1.93
-0.14
-1.35
-0.31
2.28
5.02
5.58
3.20
-1.72
-7.04
-10.22
-10.07
-6.52
-1.73
2.27
3.61
2.49
0.42
-0.74
0.48
3.44
6.77
8.06
6.41
2.02
-3.11
-6.51
-6.90
-4.07
-0.01
3.37
4.20
2.64
0.15
-1.38
-0.40
2.51
6.03
7.68
6.44
2.32
-2.78
-6.39
-7.10
-4.54
-0.57
2.92
3.94
2.49
-0.13
-2.05
-1.64
0.72
3.88
5.50
4.53
0.90
-3.67
-6.87
-7.41
-4.93
-1.28
1.74
2.25
0.37
-2.53
-4.47
-3.78
-0.78
3.30
5.99
6.01
3.05
-1.25
-4.51
-5.28
-3.06
0.36
3.04
2.93
0.08
-4.05
-7.19
-7.34
-4.61
-0.16
3.36
4.45
2.52
-0.94
-3.67
-4.18
-1.94
1.33
3.81
3.51
0.47
-3.92
-7.45
-8.12
-5.89
-1.67
2.13
4.10
3.47
1.36
-0.40
-0.59
1.32
3.86
5.54
4.64
1.28
-3.28
-7.01
-8.03
-6.23
-2.39
1.23
3.28
2.90
1.03
-0.65
-0.93
0.85
3.46
5.58
5.43
2.95
-1.04
-4.76
-6.43
-5.72
-2.93
0.13
2.29
2.62
1.76
0.98
1.25
3.13
5.43
6.92
5.93
2.46
-2.55
-7.11
-9.21
-8.34
-4.85
-0.76
2.43
3.44
2.77
1.77
1.67
3.35
5.78
7.71
7.25
4.16
-0.80
-5.61
-8.07
-7.43
-3.87
0.58
4.28
5.74
5.34
4.37
4.12
5.52
7.57
8.99
7.87
3.97
-1.88
-7.50
-10.55
-10.22
-6.73
-2.29
1.24
2.25
1.12
-0.62
-1.30
0.29
3.28
6.22
6.84
4.45
-0.47
-5.83
-9.15
-9.32
-6.23
-1.93
1.72
2.96
2.00
0.25
-0.60
0.76
3.60
6.55
7.30
5.09
0.22
-5.24
-8.79
-9.16
-6.14
-1.73
2.11
3.45
2.39
0.32
-0.90
0.28
3.30
6.83
8.38
6.93
2.55
-2.77
-6.46
-7.13
-4.46
-0.44
2.93
3.66
1.87
-0.94
-2.73
-1.82
1.29
5.22
7.34
6.43
2.37
-2.93
-6.91
-8.04
-5.86
-2.26
0.80
1.26
-0.81
-3.96
-6.08
-5.34
-2.01
2.68
6.15
7.04
4.86
1.11
-1.98
-2.97
-1.29
1.48
3.63
3.27
0.38
-3.78
-7.16
-7.87
-5.87
-2.03
1.31
2.75
1.55
-1.15
-3.43
-3.94
-2.01
0.91
3.23
3.03
0.22
-4.09
-7.86
-9.07
-7.47
-3.70
0.03
2.31
2.18
0.53
-0.97
-1.11
0.81
3.49
5.53
5.10
2.15
-2.31
-6.32
-7.88
-6.65
-3.11
0.65
3.26
3.67
2.62
1.60
1.70
3.54
5.83
7.20
5.91
2.01
-3.36
-8.05
-9.93
-8.57
-4.48
0.14
3.72
5.06
4.77
4.26
4.65
6.55
8.70
9.70
7.81
3.12
-3.20
-8.87
-11.60
-10.77
-6.77
-1.83
2.30
4.12
4.00
3.28
3.28
4.93
7.31
9.17
8.60
5.31
-0.02
-5.36
-8.48
-8.55
-5.59
-1.53
2.02
3.57
3.39
2.70
2.82
4.69
7.35
9.43
8.85
5.18
-0.91
-7.15
-10.99
-11.25
-7.90
-3.08
1.21
3.09
2.69
1.37
0.77
2.14
4.73
7.12
7.07
3.97
-1.68
-7.61
-11.23
-11.30
-7.72
-2.65
1.90
3.94
3.58
2.16
1.46
2.89
5.82
8.92
9.83
7.69
2.70
-3.10
-7.14
-8.07
-5.61
-1.82
1.27
1.64
-0.58
-3.85
-6.00
-5.26
-2.02
2.32
5.05
4.82
1.36
-3.51
-7.24
-8.23
-5.96
-2.25
0.93
1.45
-0.71
-4.21
-6.89
-6.84
-4.11
0.28
3.91
5.37
4.06
1.27
-0.97
-1.31
0.78
3.73
5.86
5.22
1.83
-3.06
-7.26
-8.71
-7.16
-3.32
0.54
2.97
3.03
1.61
0.31
0.26
2.03
4.26
5.56
4.27
0.53
-4.51
-8.80
-10.44
-9.17
-5.55
-1.65
1.20
2.06
1.65
1.37
2.21
4.65
7.29
8.78
7.36
3.15
-2.73
-8.05
-10.61
-9.81
-6.01
-1.39
2.40
3.96
3.72
3.03
3.15
4.94
7.37
9.13
8.33
4.77
-0.72
-5.98
-8.74
-8.22
-4.63
-0.13
3.51
4.74
3.95
2.58
2.13
3.68
6.28
8.52
8.26
5.00
-0.58
-6.29
-9.64
-9.57
-6.13
-1.43
2.61
4.25
3.75
2.48
2.03
3.55
6.17
8.45
8.15
4.71
-1.28
-7.52
-11.37
-11.62
-8.20
-3.27
1.12
3.01
2.52
1.03
0.32
1.78
4.78
7.97
8.99
6.99
2.20
-3.35
-7.16
-7.91
-5.30
-1.30
2.15
3.09
1.61
-0.89
-2.48
-1.51
1.54
5.40
7.53
6.78
3.00
-2.02
-5.81
-6.91
-4.83
-1.35
1.64
2.10
0.00
-3.42
-6.18
-6.49
-4.46
-1.08
1.35
1.59
-0.85
-4.57
-7.44
-8.08
-5.89
-2.49
0.41
0.76
-1.53
-5.31
-8.51
-9.12
-6.99
-2.85
1.00
3.15
2.75
0.81
-0.87
-0.98
1.16
4.18
6.63
6.60
3.94
-0.43
-4.56
-6.44
-5.59
-2.35
1.29
3.96
4.51
3.53
2.41
2.31
3.99
6.34
8.07
7.36
4.04
-1.04
-5.88
-8.35
-7.82
-4.53
-0.48
2.83
4.08
3.72
3.08
3.36
5.36
8.01
9.95
9.24
5.64
-0.10
-5.84
-9.27
-9.48
-6.48
-2.25
1.55
3.29
3.19
2.45
2.40
4.07
6.59
8.71
8.41
5.25
-0.22
-5.92
-9.45
-9.74
-6.73
-2.43
1.28
2.61
1.74
0.01
-0.82
0.59
3.59
6.81
7.88
5.97
1.31
-4.06
-7.65
-8.20
-5.51
-1.62
1.55
2.14
0.41
-2.09
-3.37
-1.88
1.74
6.02
8.31
7.45
3.40
-1.91
-5.89
-7.02
-4.84
-1.24
1.82
2.30
0.22
-3.03
-5.37
-4.98
-2.10
2.12
5.14
5.59
2.99
-1.13
-4.50
-5.63
-3.88
-0.86
1.69
1.72
-0.89
-5.00
-8.54
-9.55
-7.85
-4.14
-0.66
1.22
0.65
-1.33
-2.92
-2.83
-0.44
2.81
5.34
5.18
2.21
-2.48
-6.77
-8.51
-7.27
-3.52
0.59
3.60
4.39
3.64
2.81
3.01
4.88
7.18
8.61
7.48
3.80
-1.44
-6.18
-8.38
-7.53
-3.93
0.37
3.88
5.25
4.92
4.18
4.24
5.99
8.44
10.36
9.81
6.47
0.98
-4.67
-8.19
-8.59
-5.76
-1.60
2.24
4.02
3.83
2.78
2.25
3.40
5.52
7.44
7.08
3.84
-1.85
-7.92
-11.89
-12.49
-9.50
-4.90
-0.61
1.43
1.24
0.08
-0.35
1.32
4.42
7.58
8.42
6.14
1.07
-4.60
-8.22
-8.44
-5.14
-0.59
2.99
3.50
1.15
-2.43
-4.95
-4.59
-1.71
2.29
4.79
4.50
1.18
-3.41
-6.88
-7.79
-5.68
-2.32
0.44
0.61
-1.84
-5.68
-8.91
-9.62
-7.69
-3.78
0.03
2.51
2.91
2.11
1.60
2.33
4.67
7.14
8.36
6.68
2.32
-3.42
-8.31
-10.28
-8.98
-4.99
-0.57
2.72
3.72
3.09
2.30
2.54
4.55
7.11
8.89
8.06
4.52
-0.82
-5.92
-8.62
-8.28
-5.10
-1.04
2.39
3.86
3.76
3.32
3.73
5.79
8.47
10.47
9.87
6.39
0.79
-4.82
-8.12
-8.22
-5.19
-1.08
2.40
3.66
3.04
1.89
1.68
3.46
6.28
8.70
8.55
5.30
-0.51
-6.69
-10.74
-11.45
-8.64
-4.32
-0.33
1.45
1.08
-0.22
-0.81
0.64
3.60
6.90
8.35
7.10
3.21
-1.56
-4.95
-5.75
-3.63
-0.42
2.11
2.06
-0.45
-4.12
-6.92
-7.08
-4.73
-0.87
2.16
3.08
1.30
-1.88
-4.47
-5.13
-3.25
-0.29
2.18
2.22
-0.26
-4.23
-7.73
-8.85
-7.34
-3.75
-0.17
2.12
2.21
0.92
-0.19
-0.02
2.04
4.67
6.46
5.64
2.20
-2.81
-7.29
-9.12
-7.85
-3.89
0.61
4.13
5.41
5.00
4.28
4.43
6.19
8.40
9.79
8.56
4.65
-1.06
-6.47
-9.43
-9.23
-6.05
-1.86
1.80
3.47
3.47
3.02
3.37
5.40
8.14
10.30
9.85
6.43
0.70
-5.16
-8.70
-8.85
-5.61
-1.15
2.58
3.73
2.52
0.42
-0.76
0.41
3.24
6.36
7.35
5.36
0.62
-4.84
-8.52
-9.12
-6.43
-2.41
1.05
2.06
0.84
-1.22
-2.24
-0.79
2.51
6.22
7.85
6.39
1.89
-3.67
-7.72
-8.80
-6.49
-2.71
0.61
1.37
-0.45
-3.59
-6.06
-6.08
-3.79
-0.17
2.50
3.03
0.95
-2.39
-4.99
-5.55
-3.55
-0.54
1.89
1.83
-0.75
-4.75
-8.16
-9.05
-7.22
-3.30
0.53
2.93
2.97
1.53
0.19
0.13
2.02
4.62
6.65
6.35
3.64
-0.62
-4.62
-6.49
-5.81
-2.81
0.68
3.44
4.41
4.09
3.67
4.09
5.96
8.10
9.29
7.87
3.84
-1.84
-7.08
-9.72
-9.12
-5.51
-0.94
3.01
4.86
4.95
4.43
4.51
6.03
8.03
9.33
8.08
4.08
-1.95
-7.93
-11.57
-11.92
-8.94
-4.57
-0.51
1.56
1.77
1.28
1.49
3.46
6.40
8.97
9.03
5.97
0.28
-5.90
-9.99
-10.71
-7.80
-3.27
0.96
2.93
2.65
1.33
0.68
2.09
5.00
8.20
9.44
7.86
3.59
-1.52
-5.10
-5.87
-3.54
-0.02
2.82
3.06
0.85
-2.38
-4.58
-4.05
-1.13
2.93
5.55
5.47
2.31
-2.27
-5.93
-7.17
-5.37
-2.20
0.55
0.85
-1.39
-5.01
-8.00
-8.49
-6.46
-2.71
0.48
1.81
0.58
-2.04
-4.16
-4.49
-2.41
0.62
3.05
2.97
0.29
-3.98
-7.83
-9.27
-7.95
-4.32
-0.42
2.43
3.20
2.56
1.90
2.27
4.29
6.74
8.38
7.50
4.09
-0.91
-5.51
-7.70
-6.94
-3.54
0.51
3.74
4.86
4.36
3.56
3.67
5.49
7.98
9.82
9.14
5.72
0.37
-4.84
-7.70
-7.46
-4.32
-0.40
2.67
3.42
2.33
0.87
0.55
2.41
5.44
8.16
8.31
5.31
-0.30
-6.37
-10.38
-11.10
-8.33
-3.98
0.12
2.14
2.12
1.21
0.91
2.46
5.19
7.86
8.32
5.85
0.75
-4.98
-8.86
-9.56
-6.79
-2.51
1.35
2.77
1.74
-0.46
-1.93
-1.05
1.79
5.38
7.26
6.32
2.38
-2.79
-6.77
-8.09
-6.19
-2.79
0.31
1.12
-0.42
-3.15
-5.20
-4.87
-2.33
1.49
4.35
5.11
3.31
0.25
-2.12
-2.63
-0.78
1.86
3.74
3.06
-0.13
-4.62
-8.41
-9.56
-7.90
-4.08
-0.28
2.14
2.27
0.95
-0.26
-0.23
1.67
4.16
5.95
5.33
2.31
-2.15
-6.20
-8.00
-7.23
-4.26
-0.93
1.57
2.30
1.89
1.58
2.28
4.50
7.01
8.58
7.58
4.05
-1.01
-5.57
-7.59
-6.58
-2.91
1.32
4.56
5.52
4.73
3.57
3.31
4.79
6.94
8.47
7.49
3.81
-1.77
-7.15
-10.09
-9.79
-6.39
-1.94
1.83
3.36
2.96
1.98
1.90
3.82
6.80
9.40
9.38
6.16
0.34
-5.85
-9.77
-10.23
-7.11
-2.52
1.60
3.37
2.93
1.56
0.86
2.07
4.45
6.73
6.78
3.98
-1.23
-6.82
-10.34
-10.65
-7.61
-3.26
0.50
1.76
0.68
-1.32
-2.38
-0.95
2.37
6.22
8.05
6.76
2.35
-3.23
-7.38
-8.57
-6.32
-2.53
0.85
1.73
0.09
-2.77
-4.86
-4.45
-1.79
2.02
4.62
4.82
2.23
-1.66
-4.74
-5.67
-3.89
-0.94
1.60
1.88
-0.15
-3.43
-6.12
-6.49
-4.54
-0.97
2.10
3.52
2.60
0.40
-1.36
-1.50
0.54
3.33
5.39
4.85
1.66
-3.12
-7.46
-9.30
-8.26
-4.76
-0.87
2.04
2.91
2.41
1.93
2.48
4.61
7.00
8.34
6.91
2.81
-2.89
-8.06
-10.57
-9.84
-6.13
-1.42
2.80
5.13
5.89
6.17
6.96
8.96
11.14
12.35
10.84
6.53
0.23
-5.94
-9.70
-10.11
-7.15
-2.77
1.35
3.48
3.73
3.20
3.21
4.80
7.13
8.94
8.15
4.33
-1.93
-8.40
-12.54
-13.17
-10.14
-5.48
-1.00
1.46
1.97
1.70
2.10
4.24
7.31
9.95
9.98
6.78
0.83
-5.66
-10.04
-10.92
-8.04
-3.43
0.84
2.66
1.98
0.10
-1.11
-0.03
2.92
6.51
8.28
7.14
2.95
-2.51
-6.75
-8.25
-6.36
-2.72
0.93
2.56
1.95
0.02
-1.60
-1.41
0.38
2.94
4.22
3.32
-0.04
-4.42
-7.76
-8.77
-6.87
-3.52
-0.33
0.72
-0.62
-3.50
-6.20
-6.93
-5.49
-2.37
0.46
1.88
1.12
-0.91
-2.54
-2.62
-0.47
2.63
5.32
5.74
3.65
-0.22
-4.16
-6.30
-6.19
-3.94
-1.21
0.96
1.59
1.22
0.99
1.74
3.97
6.50
8.14
7.22
3.69
-1.62
-6.80
-9.74
-9.70
-6.67
-2.42
1.68
4.15
5.08
5.42
6.08
7.86
9.89
11.14
9.93
6.08
0.31
-5.43
-8.96
-9.40
-6.71
-2.75
0.93
2.78
2.98
2.65
3.05
5.10
7.92
10.20
9.93
6.64
0.86
-5.31
-9.43
-10.30
-7.69
-3.46
0.60
2.68
2.77
2.01
1.87
3.52
6.24
8.76
8.86
5.86
0.10
-6.34
-10.89
-12.14
-9.72
-5.43
-1.13
1.21
1.48
0.77
0.65
2.48
5.68
9.01
10.13
8.11
2.99
-3.24
-7.97
-9.61
-7.58
-3.65
0.22
1.85
0.96
-1.42
-3.50
-3.56
-1.71
1.20
3.01
2.62
-0.40
-4.66
-8.04
-9.11
-7.17
-3.67
-0.24
1.00
-0.29
-3.34
-6.37
-7.52
-6.46
-3.57
-0.75
0.86
0.47
-1.07
-2.20
-1.82
0.67
3.94
6.58
6.68
4.06
-0.44
-4.91
-7.24
-6.84
-3.83
-0.10
3.01
4.23
3.97
3.43
3.64
5.34
7.47
8.88
7.83
4.22
-1.14
-6.33
-9.24
-9.21
-6.33
-2.45
1.00
2.65
2.81
2.63
3.21
5.38
8.13
10.22
9.73
6.34
0.67
-5.28
-9.20
-10.06
-7.66
-3.79
0.00
2.07
2.49
2.27
2.64
4.60
7.36
9.75
9.76
6.87
1.44
-4.57
-8.81
-10.06
-7.93
-4.13
-0.30
1.77
2.06
1.63
1.92
4.06
7.30
10.28
10.69
7.74
1.76
-5.06
-9.97
-11.41
-8.94
-4.48
-0.07
2.13
1.98
0.60
-0.21
1.08
4.05
7.52
9.10
7.74
3.31
-2.40
-6.88
-8.57
-6.81
-3.21
0.41
1.91
1.04
-1.28
-3.30
-3.35
-1.47
1.55
3.57
3.49
0.82
-3.17
-6.44
-7.61
-5.96
-2.89
0.01
0.71
-1.08
-4.52
-7.76
-8.89
-7.58
-4.26
-0.92
1.22
1.25
-0.04
-1.15
-1.02
0.94
3.42
5.08
4.19
0.76
-4.21
-8.71
-10.69
-9.69
-6.01
-1.60
2.18
4.14
4.72
5.06
6.03
8.17
10.28
11.18
9.32
4.83
-1.25
-6.82
-9.76
-9.47
-6.14
-1.72
2.32
4.57
5.27
5.42
6.03
7.83
9.91
11.22
10.10
6.42
0.81
-4.82
-8.38
-8.98
-6.49
-2.61
1.21
3.39
3.97
3.87
4.21
5.92
8.22
9.95
9.15
5.40
-0.78
-7.28
-11.62
-12.57
-9.89
-5.51
-1.25
0.99
1.26
0.72
0.88
2.94
6.11
9.01
9.33
6.36
0.45
-6.22
-10.95
-12.27
-9.79
-5.39
-1.03
1.21
1.19
0.02
-0.63
0.69
3.52
6.75
8.12
6.72
2.51
-2.71
-6.55
-7.58
-5.32
-1.57
1.77
2.60
0.80
-2.41
-5.00
-5.13
-2.85
0.88
3.66
4.23
2.02
-1.59
-4.52
-5.37
-3.51
-0.41
2.34
2.81
0.85
-2.61
-5.76
-6.81
-5.59
-2.63
0.10
1.45
0.64
-1.39
-3.01
-3.06
-0.88
2.22
4.82
5.01
2.58
-1.65
-5.82
-7.94
-7.48
-4.64
-1.24
1.51
2.54
2.39
2.26
3.03
5.20
7.55
8.85
7.44
3.39
-2.33
-7.68
-10.60
-10.45
-7.41
-3.37
0.27
2.19
2.72
2.95
3.85
6.12
8.67
10.28
9.20
5.31
-0.54
-6.25
-9.53
-9.52
-6.27
-1.72
2.51
4.83
5.39
5.28
5.66
7.40
9.59
11.05
9.90
5.87
-0.36
-6.70
-10.79
-11.61
-9.01
-4.87
-0.87
1.28
1.68
1.45
1.96
4.24
7.45
10.20
10.27
7.03
0.94
-5.77
-10.42
-11.58
-8.91
-4.38
0.03
2.26
2.23
1.10
0.55
1.99
4.91
8.14
9.39
7.75
3.21
-2.40
-6.69
-8.23
-6.47
-3.07
0.22
1.47
0.60
-1.24
-2.29
-1.03
2.09
5.80
7.60
6.34
1.90
-3.77
-8.02
-9.16
-6.66
-2.41
1.46
2.66
1.02
-2.18
-4.80
-4.90
-2.55
1.22
3.97
4.35
1.85
-2.09
-5.28
-6.27
-4.43
-1.31
1.40
1.69
-0.54
-4.26
-7.49
-8.36
-6.67
-3.06
0.32
2.20
1.78
0.02
-1.37
-1.21
1.12
4.22
6.58
6.28
3.17
-1.76
-6.47
-8.84
-8.33
-5.23
-1.53
1.41
2.44
2.08
1.61
2.00
3.83
5.93
7.11
5.78
2.08
-2.95
-7.31
-9.07
-7.90
-4.27
-0.31
2.56
3.24
2.40
1.51
1.75
3.81
6.45
8.28
7.44
3.82
-1.60
-6.71
-9.30
-8.74
-5.30
-1.09
2.35
3.65
3.26
2.51
2.65
4.51
7.10
9.17
8.85
5.81
0.68
-4.67
-8.08
-8.70
-6.40
-2.86
0.53
2.32
2.70
2.66
3.28
5.37
8.00
9.93
9.25
5.64
-0.25
-6.30
-10.06
-10.43
-7.30
-2.65
1.73
3.98
4.12
3.31
2.95
4.22
6.41
8.31
7.83
4.42
-1.48
-7.77
-11.94
-12.74
-9.88
-5.26
-0.72
1.83
2.37
2.04
2.31
4.35
7.37
9.96
9.83
6.32
-0.08
-7.00
-11.61
-12.41
-9.16
-4.03
0.77
3.06
2.78
1.27
0.43
1.81
4.89
8.28
9.51
7.59
2.59
-3.46
-7.91
-9.23
-6.92
-2.79
1.22
3.03
2.50
0.69
-0.64
0.05
2.44
5.47
6.88
5.65
1.56
-3.71
-7.80
-9.20
-7.26
-3.59
0.04
1.47
0.41
-2.20
-4.59
-4.96
-3.24
-0.12
2.32
2.92
1.06
-2.07
-4.59
-5.20
-3.24
-0.11
2.65
3.08
0.98
-2.70
-6.09
-7.30
-6.07
-2.95
-0.04
1.38
0.48
-1.76
-3.58
-3.68
-1.39
1.96
4.87
5.35
3.16
-0.90
-4.95
-7.00
-6.53
-3.75
-0.49
2.05
2.80
2.31
1.82
2.28
4.28
6.66
8.21
7.27
3.78
-1.40
-6.37
-9.14
-9.10
-6.37
-2.70
0.63
2.38
2.88
3.15
4.05
6.18
8.45
9.71
8.30
4.17
-1.77
-7.41
-10.52
-10.31
-6.91
-2.36
1.64
3.50
3.46
2.77
2.82
4.65
7.43
9.90
10.03
7.30
2.22
-3.23
-6.76
-7.36
-4.92
-1.31
1.82
2.87
2.11
0.84
0.58
2.42
5.48
8.26
8.47
5.45
-0.25
-6.37
-10.23
-10.54
-7.22
-2.47
1.65
3.15
2.21
0.28
-0.81
0.38
3.19
6.26
7.23
5.31
0.76
-4.36
-7.59
-7.74
-4.64
-0.37
3.11
3.93
2.31
-0.26
-1.77
-0.66
2.52
6.37
8.35
7.33
3.25
-2.00
-5.94
-7.12
-5.16
-1.94
0.58
0.40
-2.42
-6.46
-9.54
-9.76
-7.21
-2.90
0.72
2.28
1.15
-1.38
-3.31
-3.35
-0.93
2.38
4.94
4.82
2.04
-2.24
-5.94
-7.06
-5.42
-1.67
1.94
4.02
3.62
1.67
-0.12
-0.45
1.40
4.17
6.40
6.14
3.19
-1.57
-6.15
-8.43
-7.83
-4.61
-0.76
2.29
3.28
2.71
1.92
2.01
3.72
5.89
7.27
6.05
2.19
-3.35
-8.42
-10.80
-9.83
-5.81
-0.90
3.19
4.96
4.80
4.09
4.20
6.07
8.68
10.60
9.76
5.80
-0.46
-6.72
-10.40
-10.45
-6.93
-2.04
2.24
4.10
3.76
2.56
2.07
3.46
5.86
7.89
7.37
3.81
-2.20
-8.41
-12.29
-12.67
-9.50
-4.91
-0.84
0.80
0.16
-1.40
-2.14
-0.65
2.46
5.93
7.46
6.18
2.17
-2.71
-6.13
-6.82
-4.47
-0.89
2.16
2.87
1.38
-0.99
-2.39
-1.31
1.76
5.60
7.79
7.26
3.83
-0.81
-4.37
-5.45
-3.51
-0.18
2.87
3.72
2.31
-0.29
-2.31
-2.12
0.12
3.52
5.82
5.89
3.26
-0.66
-3.75
-4.60
-2.57
0.74
3.58
3.87
1.44
-2.55
-6.02
-6.90
-4.95
-0.89
2.98
5.21
4.91
3.09
1.60
1.76
4.31
7.89
10.97
11.58
9.55
5.77
2.24
1.00
2.54
6.57
11.13
14.88
16.70
17.19
17.72
19.46
23.12
27.60
31.58
33.16
32.11
29.21
26.49
26.21
29.30
35.73
43.76
51.95
59.02
65.41
72.30
80.54
90.15
98.84
103.73
101.53
91.36
74.57
54.91
36.79
22.81
13.60
6.95
0.55
-7.33
-15.95
-23.16
-26.95
-26.50
-23.44
-19.86
-17.97
-17.77
-18.12
-17.50
-15.81
-15.43
-19.96
-33.00
-55.21
-84.25
-114.42
-139.43
-154.91
-159.68
-156.34
-148.52
-139.38
-129.03
-115.64
-96.59
-71.08
-41.71
-13.08
9.52
23.59
30.00
33.30
38.93
50.56
68.48
88.88
106.46
116.12
115.70
106.05
90.52
73.15
56.76
42.81
30.94
20.49
10.33
-0.57
-13.80
-31.47
-55.20
-85.40
-119.59
-153.22
-180.10
-195.14
-195.74
-182.85
-160.65
-134.42
-109.52
-88.61
-72.93
-61.59
-53.07
-45.53
-36.86
-25.72
-11.03
6.01
23.05
36.01
41.23
37.39
26.26
13.00
3.01
0.09
3.83
10.80
16.43
17.94
15.91
12.79
11.35
11.68
11.61
7.53
-2.16
-15.43
-26.92
-29.67
-19.67
2.88
32.18
60.42
80.53
89.46
88.81
82.50
75.18
68.83
63.94
59.34
54.69
50.58
47.40
44.98
41.00
33.18
19.66
1.46
-18.42
-35.76
-47.05
-51.26
-49.02
-43.09
-35.75
-29.00
-22.78
-15.75
-6.47
6.29
21.63
37.91
52.42
63.90
72.15
78.44
83.96
88.39
90.56
88.52
82.46
74.14
67.71
67.08
73.48
84.71
94.45
95.82
83.27
56.46
19.67
-19.20
-52.37
-75.89
-89.94
-98.84
-106.80
-116.54
-127.07
-135.20
-137.87
-133.41
-123.17
-109.61
-96.42
-86.11
-80.49
-79.09
-79.39
-77.44
-68.70
-51.13
-25.49
3.55
30.38
50.40
61.89
66.36
65.81
62.06
54.84
44.09
30.49
17.07
8.33
7.57
15.67
29.17
42.95
51.53
52.74
47.96
41.22
37.07
37.47
41.90
47.01
49.77
48.26
43.46
38.16
34.88
35.07
37.16
38.34
34.85
24.82
8.30
-12.22
-32.46
-48.41
-56.55
-56.09
-47.80
-34.65
-19.74
-5.81
5.00
11.87
13.83
11.01
3.56
-6.59
-16.83
-24.16
-26.57
-24.64
-20.33
-16.91
-16.08
-18.20
-21.39
-23.28
-22.52
-18.89
-14.12
-9.66
-6.91
-5.54
-4.77
-3.64
-1.74
0.02
0.93
-0.13
-2.74
-6.15
-8.48
-8.02
-4.17
2.80
10.64
17.09
19.55
17.41
11.36
3.91
-1.85
-4.01
-1.60
3.97
11.07
17.52
22.63
26.62
30.02
33.43
36.03
37.04
34.99
29.72
21.66
12.57
4.72
-0.18
-0.77
2.45
8.44
14.90
20.09
22.81
22.71
20.46
16.47
11.61
6.03
0.64
-3.85
-6.27
-5.84
-3.07
0.80
3.51
3.70
1.23
-1.56
-0.77
7.62
25.97
52.93
83.85
111.37
128.85
132.36
122.43
103.58
81.64
61.57
44.94
30.57
14.77
-6.26
-35.45
-73.57
-118.24
-164.63
-205.54
-234.33
-246.23
-240.76
-220.77
-190.84
-155.29
-116.44
-75.97
-35.70
0.59
28.44
44.06
46.54
38.50
24.47
9.40
-3.84
-13.97
-21.13
-25.43
-26.47
-23.95
-17.96
-10.12
-2.63
1.75
1.06
-5.55
-17.19
-30.93
-43.14
-49.64
-48.48
-39.63
-25.93
-10.65
3.67
15.95
27.03
37.17
46.21
52.39
54.48
52.24
47.21
41.98
37.96
35.47
32.73
28.46
22.09
15.12
10.12
9.02
12.39
18.09
23.13
24.05
19.54
10.30
-0.70
-9.52
-13.52
-11.45
-4.96
3.63
11.34
16.79
19.83
20.93
20.99
19.72
16.94
11.95
5.33
-1.94
-8.09
-11.55
-12.05
-9.72
-6.01
-1.65
2.70
7.56
13.73
21.46
30.47
38.82
44.64
45.71
41.65
33.21
22.93
14.12
9.17
9.40
13.28
18.14
20.24
17.54
10.11
-0.06
-9.95
-18.25
-25.10
-32.85
-43.18
-56.53
-70.52
-81.08
-84.90
-80.31
-69.22
-55.07
-42.01
-31.99
-24.53
-17.45
-8.12
3.85
17.05
27.77
32.97
30.91
23.04
12.93
4.39
0.26
0.31
2.82
4.87
5.05
3.51
1.75
1.36
1.91
1.54
-3.17
-14.52
-32.89
-55.60
-77.97
-95.31
-104.11
-103.70
-94.86
-80.25
-62.36
-43.90
-27.52
-15.53
-10.34
-13.09
-24.07
-41.47
-62.38
-82.20
-95.66
-98.13
-86.58
-61.44
-25.71
15.19
56.61
95.72
132.30
167.44
200.58
228.87
246.95
250.41
237.95
213.31
183.29
154.35
129.80
108.09
85.88
60.13
31.67
4.36
-16.82
-28.67
-32.05
-30.44
-28.50
-28.55
-30.56
-32.11
-30.68
-25.64
-18.34
-12.14
-9.66
-12.38
-18.87
-26.40
-31.76
-32.71
-29.18
-22.17
-13.81
-5.13
3.35
12.54
23.08
34.36
44.61
50.28
48.49
37.33
17.86
-6.89
-32.21
-53.40
-67.55
-73.28
-72.01
-65.71
-57.10
-47.40
-36.57
-23.84
-8.39
8.66
25.13
37.45
43.60
43.29
38.73
33.15
28.65
25.93
23.46
20.22
15.78
11.91
10.67
12.91
17.57
21.16
20.58
13.89
2.47
-10.55
-21.11
-26.40
-26.34
-22.40
-17.78
-14.58
-14.17
-15.68
-17.33
-17.16
-13.69
-7.36
0.61
7.60
11.94
12.76
11.37
10.28
11.75
17.24
25.62
34.84
42.01
45.99
47.19
47.27
48.07
49.77
51.72
52.13
50.46
47.19
44.13
43.07
44.34
46.95
48.82
48.98
47.93
48.22
52.52
61.95
74.98
87.40
94.54
92.57
80.78
60.66
35.44
8.22
-19.62
-48.37
-80.30
-117.71
-162.09
-211.81
-262.18
-305.88
-335.15
-345.12
-335.17
-309.99
-276.73
-242.57
-211.36
-183.19
-155.52
-125.44
-92.40
-57.90
-24.96
4.33
29.40
51.04
69.79
84.37
92.04
89.37
75.31
52.34
26.91
7.28
-0.13
6.89
24.77
46.57
64.76
75.32
78.66
79.05
81.86
90.16
103.77
119.10
132.10
139.89
142.81
143.36
144.17
146.67
149.30
149.25
143.31
130.45
111.62
89.51
66.81
44.33
21.76
-2.39
-28.04
-53.54
-75.11
-89.02
-93.71
-90.41
-83.55
-77.80
-76.89
-81.14
-88.55
-95.42
-98.34
-95.83
-87.80
-76.21
-63.03
-50.42
-39.27
-29.65
-21.21
-13.44
-7.22
-3.59
-4.33
-9.50
-17.70
-25.47
-28.86
-25.79
-16.35
-4.07
6.85
12.63
12.56
8.68
4.57
3.62
6.41
11.49
15.33
15.51
11.33
5.03
0.35
0.10
5.35
13.75
21.90
26.23
25.83
22.25
18.53
17.52
19.42
22.59
23.54
20.13
11.98
1.74
-6.54
-9.79
-6.67
0.66
8.89
14.12
14.73
11.22
5.91
1.73
-0.05
0.74
2.17
2.69
1.09
-1.88
-4.22
-4.07
-0.12
6.48
13.82
18.92
20.41
18.31
14.27
10.65
8.50
8.10
7.87
6.71
3.69
-0.40
-3.92
-5.50
-4.23
-1.23
2.01
3.25
1.75
-2.22
-7.06
-10.64
-11.91
-10.45
-7.65
-4.77
-3.40
-3.80
-5.38
-7.35
-8.63
-9.46
-10.09
-11.67
-14.44
-18.37
-22.57
-25.82
-27.71
-27.94
-27.55
-27.21
-27.83
-29.09
-30.03
-29.79
-27.71
-24.97
-23.13
-24.41
-29.27
-36.72
-43.81
-46.92
-44.00
-34.70
-21.73
-8.47
1.63
7.51
10.22
11.84
14.37
17.46
19.55
18.01
11.93
2.46
-6.96
-12.34
-11.76
-5.80
1.75
6.70
6.24
1.16
-4.45
-5.26
2.98
20.86
45.62
71.85
94.28
109.10
115.08
113.06
104.79
92.39
77.57
62.42
48.94
39.68
36.82
41.52
53.64
71.35
92.08
112.71
130.69
144.08
152.12
154.90
153.05
147.66
139.53
129.26
117.01
102.90
87.07
69.78
51.26
31.72
11.26
-10.23
-32.56
-56.02
-80.75
-106.58
-132.86
-158.71
-182.87
-203.92
-220.49
-231.39
-235.85
-233.45
-224.23
-207.87
-185.14
-157.49
-126.80
-95.12
-64.36
-36.18
-11.69
8.49
24.24
35.68
43.29
47.72
49.71
49.96
49.04
47.40
45.36
43.16
40.81
38.33
35.77
33.18
30.63
28.18
25.86
23.70
21.70
19.80
17.93
16.08
14.27
12.52
10.86
9.31
7.91
6.63
5.46
4.36
3.31
2.32
1.39
0.53
-0.25
-0.94
-1.54
-2.08
-2.56
-2.98
-3.35
-3.66
-3.91
-4.10
-4.18
-4.18
-4.12
-4.01
-3.86
-3.69
-3.50
-3.31
-3.11
-2.92
-2.74
-2.57
-2.41
-2.25
-2.10
-1.94
-1.79
-1.65
-1.50
-1.35
-1.20
-1.03
-0.84
-0.65
-0.46
-0.35
-0.31
-0.33
-0.40
-0.44
-0.43
-0.31
-0.13
0.08
0.26
0.35
0.37
0.35
0.38
0.53
0.82
1.23
1.67
1.99
2.16
2.17
2.13
2.23
2.61
3.35
4.35
5.38
6.11
6.35
6.14
5.75
5.62
6.16
7.50
9.44
11.43
12.78
13.09
12.40
11.24
10.50
10.97
12.94
16.03
19.27
21.47
21.84
20.34
17.67
14.94
12.95
11.93
11.20
9.51
5.45
-1.88
-13.00
-28.02
-46.40
-66.38
-84.59
-96.50
-97.33
-85.61
-63.39
-36.13
-10.70
7.49
16.50
18.06
15.86
13.23
11.55
10.50
9.04
6.76
4.33
3.02
3.71
6.17
9.22
11.37
11.53
9.63
6.60
3.74
2.22
2.50
4.20
6.35
7.84
7.97
6.73
4.71
2.76
1.61
1.57
2.40
3.55
4.38
4.51
3.91
2.88
1.86
1.22
1.11
1.41
1.90
2.27
2.34
2.12
1.72
1.29
1.00
0.89
0.94
1.08
1.23
1.31
1.33
1.30
1.28
1.30
1.42
1.63
1.91
2.20
2.41
2.49
2.44
2.31
2.17
2.09
2.13
2.27
2.44
2.54
2.51
2.34
2.11
1.97
2.04
2.37
2.90
3.45
3.77
3.69
3.22
2.58
2.14
2.25
3.04
4.36
5.74
6.59
6.46
5.36
3.75
2.44
2.18
3.31
5.52
7.93
9.39
9.08
6.93
3.73
0.86
-0.37
0.64
3.45
6.70
8.83
8.56
5.65
0.91
-4.26
-8.34
-9.95
-7.97
-1.88
7.45
17.15
22.45
18.01
0.34
-30.12
-68.08
-104.76
-131.12
-141.08
-133.55
-111.87
-81.66
-48.24
-14.72
16.72
44.70
67.67
84.09
92.99
94.95
92.11
87.25
83.00
80.59
79.88
79.68
78.63
75.96
71.81
67.05
62.53
58.42
53.91
47.67
38.45
25.95
11.15
-3.97
-17.19
-27.22
-34.14
-39.50
-45.39
-53.36
-63.57
-74.57
-84.23
-90.62
-93.47
-94.08
-95.29
-100.04
-110.51
-127.43
-149.38
-172.99
-192.53
-201.54
-194.31
-168.41
-126.68
-77.51
-32.90
-4.14
2.24
-12.52
-40.20
-68.96
-87.76
-90.18
-75.41
-47.46
-12.35
23.80
56.31
81.99
98.93
106.49
104.92
96.36
84.00
72.58
66.22
68.40
80.38
100.14
122.92
141.47
148.99
140.65
115.78
78.05
34.60
-5.94
-36.47
-52.51
-53.83
-43.04
-24.58
-2.69
19.61
40.37
58.39
71.59
77.56
73.73
59.42
36.82
11.04
-11.28
-25.32
-29.24
-25.69
-19.26
-14.57
-13.70
-15.54
-17.55
-17.32
-15.28
-13.83
-16.57
-25.02
-37.38
-48.66
-52.69
-46.08
-29.64
-9.44
6.41
10.81
1.35
-18.50
-41.43
-58.98
-65.98
-61.62
-49.51
-34.62
-21.01
-10.10
-0.75
8.30
17.76
26.20
31.91
33.68
32.79
32.66
37.00
48.39
65.46
84.05
98.02
102.63
96.22
80.98
61.77
43.15
28.08
16.26
6.17
-3.84
-13.36
-20.04
-21.36
-16.06
-6.17
4.48
11.32
12.19
7.68
0.88
-4.49
-6.62
-5.51
-3.49
-2.47
-3.52
-5.56
-6.66
-5.80
-3.30
-1.95
-4.68
-13.83
-28.64
-45.85
-60.33
-67.19
-64.48
-53.21
-38.16
-24.92
-18.58
-20.93
-30.28
-42.46
-52.13
-55.98
-52.96
-45.29
-36.41
-29.75
-26.81
-26.65
-27.47
-27.29
-26.20
-25.36
-26.44
-29.35
-31.66
-29.86
-21.04
-5.91
11.93
26.54
33.72
32.64
27.09
23.78
28.51
44.08
67.83
93.99
115.36
127.15
128.05
119.74
105.68
88.30
69.03
47.91
25.73
4.29
-13.19
-23.29
-24.67
-18.35
-8.38
0.66
4.77
2.95
-3.11
-9.86
-13.31
-11.68
-4.99
4.06
12.76
18.76
21.65
22.35
21.57
19.94
16.45
10.65
2.30
-7.01
-14.92
-19.27
-18.98
-15.44
-10.84
-8.28
-9.17
-13.55
-19.23
-22.98
-22.32
-15.85
-5.18
6.97
16.65
21.53
21.07
16.88
11.88
8.01
6.44
6.10
5.87
4.51
2.42
1.11
1.95
5.89
11.54
16.77
18.75
16.51
10.93
4.79
1.42
2.46
7.85
15.08
21.69
25.70
27.41
28.67
31.24
36.03
41.34
44.66
42.99
35.35
22.78
8.02
-5.91
-17.64
-27.21
-35.89
-44.02
-50.59
-53.05
-49.13
-38.83
-24.72
-11.67
-3.93
-3.54
-8.78
-15.53
-18.92
-15.41
-4.61
12.32
33.07
55.73
78.66
100.82
121.00
137.62
149.15
154.10
152.18
143.91
130.84
114.93
98.08
81.63
66.25
52.04
38.76
26.38
15.04
5.13
-2.88
-8.67
-12.30
-14.06
-14.43
-13.96
-12.93
-11.50
-9.60
-7.18
-4.24
-1.02
2.16
4.96
7.02
8.11
8.05
6.77
4.31
1.04
-3.01
-7.72
-12.81
-17.88
-22.59
-26.72
-30.21
-33.00
-35.18
-36.72
-37.42
-37.05
-35.31
-32.12
-27.81
-22.99
-18.30
-14.34
-11.37
-9.15
-7.13
-4.65
-1.39
2.43
6.01
8.50
9.31
8.43
6.70
5.37
5.76
8.37
12.44
16.18
17.41
14.45
6.72
-4.79
-18.47
-32.44
-44.06
-52.98
-60.90
-70.47
-84.28
-104.04
-129.31
-157.95
-185.78
-207.93
-219.77
-218.62
-204.65
-181.30
-154.35
-129.36
-109.85
-95.72
-84.12
-71.47
-55.99
-39.04
-24.65
-17.85
-21.95
-37.51
-61.91
-90.17
-116.22
-134.28
-140.88
-135.48
-122.04
-107.49
-99.38
-102.00
-113.48
-126.40
-131.28
-122.06
-98.83
-68.09
-38.38
-13.35
7.24
27.94
54.27
88.68
127.80
164.69
192.48
207.97
212.60
210.43
205.83
201.38
197.48
192.78
186.21
177.58
167.80
158.47
150.50
143.59
135.76
124.47
108.37
89.22
72.70
64.07
66.98
80.86
100.69
118.58
127.10
122.16
102.96
74.53
43.22
14.11
-10.49
-30.31
-45.78
-57.03
-63.75
-65.79
-63.59
-58.83
-53.49
-49.33
-47.07
-46.28
-45.80
-44.32
-41.11
-36.05
-30.10
-24.50
-20.28
-17.77
-16.55
-15.75
-14.45
-12.10
-8.65
-4.65
-0.82
2.23
4.31
5.61
6.62
7.78
9.38
11.47
13.81
16.11
18.10
19.65
20.85
21.84
22.80
23.81
24.90
25.69
26.17
26.31
26.11
25.58
24.71
23.50
21.95
20.04
17.76
15.11
12.07
8.60
4.67
0.21
-4.80
-10.42
-16.68
-23.62
-31.28
-39.71
-48.97
-59.16
-70.41
-82.80
-96.42
-111.30
-127.47
-144.82
-163.19
-182.21
-201.31
-219.75
-236.59
-250.65
-260.66
-265.35
-263.73
-255.53
-240.77
-219.95
-194.08
-164.70
-133.56
-102.49
-73.05
-46.57
-23.90
-5.34
9.14
20.00
27.84
33.46
37.52
40.43
42.09
42.13
39.85
34.47
25.38
12.45
-3.71
-22.04
-40.97
-58.95
-74.77
-87.53
-96.91
-102.72
-104.92
-103.22
-97.61
-88.42
-76.52
-63.66
-51.96
-43.66
-40.08
-41.44
-46.18
-51.65
-54.90
-53.49
-46.30
-33.22
-15.03
7.60
34.39
65.94
103.38
147.99
201.08
263.52
335.25
413.99
494.66
568.22
624.69
656.13
659.23
636.83
596.49
547.58
497.61
450.19
405.33
361.31
316.90
272.03
227.88
185.36
144.50
104.43
64.19
23.77
-15.69
-51.97
-82.94
-107.29
-125.05
-137.51
-146.64
-154.32
-161.66
-168.66
-174.45
-177.85
-177.91
-174.47
-168.20
-160.42
-152.63
-146.01
-140.95
-137.03
-133.27
-128.44
-121.74
-113.01
-102.92
-92.67
-83.53
-76.29
-70.93
-66.67
-62.17
-56.40
-48.76
-39.35
-28.79
-17.94
-7.68
0.92
6.38
7.46
3.94
-2.38
-7.33
-5.71
6.21
28.30
55.97
81.27
96.80
98.75
88.08
69.51
48.70
29.72
14.26
2.56
-4.87
-6.44
-0.92
10.51
23.17
29.64
23.22
1.11
-33.47
-72.45
-105.95
-126.87
-133.57
-129.49
-120.90
-113.59
-110.72
-112.83
-119.22
-128.65
-139.42
-148.57
-151.19
-141.65
-116.02
-74.57
-22.14
30.92
73.87
99.59
106.74
99.25
83.45
65.01
47.02
29.99
13.23
-3.33
-18.72
-31.44
-40.51
-46.18
-50.09
-54.67
-62.25
-74.11
-89.76
-107.56
-125.15
-140.65
-153.53
-164.90
-176.90
-191.65
-210.06
-231.00
-251.40
-267.07
-273.86
-267.85
-245.88
-206.06
-148.76
-77.70
-0.27
73.60
134.28
175.67
197.54
205.04
205.85
206.44
209.58
214.24
217.69
217.69
213.86
207.51
200.08
191.96
182.26
169.72
153.97
135.86
117.46
101.08
88.23
79.03
72.27
66.08
58.82
49.82
39.52
29.21
20.34
13.86
9.83
7.46
5.58
3.15
-0.29
-4.52
-8.84
-12.45
-14.85
-15.97
-16.21
-16.15
-16.29
-16.89
-17.86
-18.91
-19.68
-19.97
-19.73
-19.11
-18.29
-17.49
-16.79
-16.20
-15.67
-15.14
-14.56
-13.94
-13.29
-12.64
-12.00
-11.40
-10.83
-10.29
-9.78
-9.30
-8.85
-8.43
-8.03
-7.66
-7.31
-6.98
-6.67
-6.37
-6.10
-5.84
-5.60
-5.36
-5.15
-4.94
-4.74
-4.56
-4.38
-4.21
-4.05
-3.91
-3.76
-3.63
-3.49
-3.37
-3.25
-3.14
-3.03
-2.93
-2.83
-2.73
-2.65
-2.56
-2.47
-2.40
-2.32
-2.25
-2.18
-2.11
-2.05
-1.99
-1.93
-1.87
-1.81
-1.76
-1.71
-1.66
-1.61
-1.57
-1.53
-1.48
-1.44
-1.40
-1.37
-1.33
-1.30
-1.26
-1.23
-1.20
-1.17
-1.14
-1.11
-1.08
-1.05
-1.03
-1.00
-0.98
-0.96
-0.93
-0.91
-0.89
-0.87
-0.86
-0.85
-0.83
-0.83
-0.82
-0.81
-0.79
-0.76
-0.72
-0.68
-0.61
-0.53
-0.44
-0.35
-0.23
-0.13
-0.01
0.10
0.21
0.32
0.42
0.52
0.63
0.74
0.86
0.98
1.11
1.25
1.41
1.58
1.76
1.97
2.21
2.47
2.76
3.09
3.46
3.88
4.37
4.93
5.55
6.20
6.86
7.52
8.19
8.91
9.73
10.71
11.86
13.17
14.57
16.02
17.46
18.92
20.40
21.98
23.74
25.74
27.96
30.35
32.92
35.73
38.89
42.46
46.56
51.08
55.73
59.89
62.75
63.39
61.16
55.75
47.29
36.32
23.57
9.78
-4.27
-18.31
-32.03
-45.05
-56.72
-66.24
-72.82
-76.07
-76.48
-74.71
-72.22
-70.36
-69.96
-70.98
-72.62
-73.72
-73.56
-71.99
-69.49
-67.15
-65.80
-65.86
-67.51
-70.86
-75.89
-81.69
-86.01
-85.31
-76.20
-57.02
-29.42
1.77
30.28
50.86
61.31
62.79
58.63
52.42
46.23
40.74
35.78
31.29
27.88
26.60
27.94
30.99
33.15
31.10
22.31
7.08
-11.13
-26.78
-34.71
-32.86
-23.20
-10.92
-1.66
1.18
-2.14
-8.56
-14.36
-17.26
-17.39
-16.61
-17.20
-20.51
-26.42
-33.52
-40.01
-44.05
-44.79
-42.21
-37.05
-30.21
-22.19
-12.96
-1.77
12.51
30.69
52.94
78.50
106.40
135.00
161.60
182.19
192.07
187.73
168.71
138.96
104.59
72.97
48.52
31.83
19.95
8.22
-7.17
-27.87
-52.93
-79.36
-103.04
-119.74
-126.08
-120.67
-104.96
-83.06
-60.53
-42.31
-30.79
-25.94
-26.07
-29.15
-33.81
-39.39
-45.22
-50.21
-53.12
-53.17
-51.01
-48.58
-47.93
-50.27
-55.26
-60.80
-64.07
-62.81
-55.86
-43.78
-28.01
-10.27
8.33
27.55
47.75
69.43
92.55
117.13
142.47
166.51
185.60
195.01
190.67
171.28
139.75
102.95
68.36
42.00
26.10
18.96
16.40
14.46
10.92
5.59
-0.55
-6.64
-12.41
-17.98
-23.37
-28.20
-32.00
-34.84
-37.42
-41.01
-46.89
-55.61
-66.43
-77.73
-87.38
-93.56
-95.23
-92.33
-85.78
-77.36
-69.39
-63.87
-61.38
-60.34
-57.32
-48.52
-32.02
-9.49
14.42
32.37
39.14
33.66
19.15
1.01
-15.96
-29.49
-40.04
-49.26
-58.40
-67.06
-73.76
-77.15
-77.10
-74.71
-71.65
-69.64
-68.13
-65.42
-58.83
-45.90
-25.44
1.77
33.25
65.46
94.53
118.21
135.81
148.02
156.17
161.80
166.35
171.24
177.19
183.57
187.65
185.00
171.30
144.69
107.73
66.97
30.62
4.81
-8.44
-12.45
-12.85
-14.97
-21.90
-34.23
-51.32
-72.36
-96.24
-120.28
-140.30
-151.28
-149.65
-135.58
-113.10
-89.09
-70.03
-59.45
-56.79
-58.65
-60.95
-61.03
-58.49
-53.80
-47.75
-40.62
-32.21
-22.55
-12.25
-2.42
5.88
11.93
15.99
18.89
21.78
25.54
30.37
35.51
39.52
40.91
38.66
32.90
24.81
16.57
10.52
8.55
11.24
17.78
26.44
34.94
41.45
45.03
45.99
45.39
44.40
43.43
41.71
37.70
29.75
17.10
0.43
-17.79
-34.15
-45.07
-47.53
-39.66
-21.15
5.67
35.62
59.88
70.58
63.54
40.49
8.62
-22.07
-42.86
-50.34
-47.21
-40.30
-36.81
-41.23
-54.36
-73.80
-94.88
-111.60
-119.21
-115.62
-102.24
-84.08
-66.83
-55.15
-51.32
-54.42
-60.50
-66.63
-72.43
-80.11
-92.84
-110.83
-131.65
-151.45
-166.09
-170.50
-163.07
-144.45
-116.99
-84.90
-51.63
-21.14
2.43
11.97
8.46
-0.72
-4.99
10.57
44.75
91.42
145.69
198.90
248.48
299.71
356.76
419.14
481.04
533.28
569.67
587.70
587.90
550.51
471.95
362.78
242.10
126.79
24.72
-61.80
-133.30
-190.97
-234.77
-260.55
-266.63
-255.97
-234.25
-208.24
-181.97
-156.64
-131.42
-103.48
-66.69
-21.31
29.16
79.52
124.87
162.06
188.16
198.77
190.12
162.66
120.44
71.49
25.58
-8.98
-27.70
-31.67
-27.09
-20.48
-14.92
-10.91
-7.64
-4.76
-3.16
-4.10
-8.87
-19.33
-34.85
-52.84
-70.55
-86.34
-100.44
-114.69
-131.67
-145.69
-156.30
-163.59
-167.66
-168.61
-166.45
-161.23
-159.68
-161.39
-165.14
-172.01
-181.63
-192.52
-203.05
-212.51
-221.90
-226.46
-224.95
-209.42
-178.92
-136.45
-88.15
-40.77
0.77
34.22
59.47
77.72
90.79
98.95
103.34
105.58
107.14
108.80
110.48
111.47
111.15
109.69
106.70
102.63
98.46
94.93
92.05
89.07
84.74
77.14
64.68
45.80
20.83
-7.29
-33.33
-51.25
-55.21
-45.00
-25.41
-4.14
11.19
16.60
12.94
4.45
-4.02
-9.67
-12.86
-15.65
-19.90
-26.04
-32.67
-37.47
-38.76
-36.30
-31.26
-25.83
-21.78
-19.08
-16.35
-11.18
-1.23
14.71
36.28
61.90
88.88
115.41
139.65
158.89
169.46
167.77
152.12
124.31
89.67
55.50
28.30
11.32
3.99
3.38
6.15
10.04
13.94
17.01
17.73
14.05
4.38
-11.35
-31.29
-52.60
-72.51
-88.85
-101.90
-112.88
-123.67
-135.89
-150.25
-165.94
-180.17
-188.44
-185.78
-170.00
-140.23
-100.37
-57.72
-20.11
7.01
22.39
28.73
30.58
31.62
33.46
35.33
35.77
34.18
31.34
29.04
28.88
31.30
35.35
39.38
41.42
40.38
36.44
30.74
25.00
20.86
19.28
20.19
22.70
25.29
26.63
26.16
23.92
20.80
18.17
17.46
19.82
25.75
34.57
44.28
51.53
51.93
41.72
19.08
-14.75
-55.52
-97.36
-134.74
-164.02
-182.52
-190.24
-189.78
-185.47
-181.90
-182.38
-187.71
-196.15
-204.40
-209.44
-210.55
-209.09
-207.29
-205.88
-203.13
-195.98
-182.40
-163.23
-142.34
-124.83
-114.24
-110.99
-112.76
-116.56
-120.62
-124.71
-129.19
-133.63
-136.27
-134.71
-127.44
-114.70
-98.47
-81.52
-66.30
-54.31
-46.09
-41.67
-40.57
-42.04
-45.05
-48.53
-51.55
-53.33
-53.52
-52.01
-48.84
-44.07
-37.75
-29.81
-20.27
-9.24
2.90
15.54
27.94
39.33
49.22
57.37
63.89
69.15
73.59
77.59
81.31
84.76
87.85
90.58
93.06
95.58
98.49
102.05
106.39
111.47
117.17
123.38
130.09
137.35
145.25
153.92
163.63
174.76
187.78
202.89
219.62
236.39
250.44
258.39
257.21
245.45
224.04
196.13
165.93
137.13
111.78
90.26
72.19
57.45
46.54
39.92
36.92
35.16
31.21
22.09
6.80
-13.04
-34.26
-53.70
-69.45
-81.06
-88.56
-91.28
-87.38
-74.73
-52.55
-22.88
9.24
37.25
55.56
62.07
59.09
52.30
48.02
50.35
59.59
72.70
85.35
94.43
99.28
101.31
102.62
104.46
106.74
108.73
110.00
111.19
113.62
118.48
125.89
134.57
142.38
147.18
147.65
143.60
135.83
125.62
114.23
102.67
91.60
81.39
72.27
64.32
57.51
51.74
46.88
42.93
39.94
37.90
36.54
35.35
33.66
30.92
26.95
21.96
16.53
11.28
6.64
2.77
-0.36
-2.65
-4.21
-5.54
-7.44
-10.69
-15.52
-21.28
-26.70
-30.32
-30.85
-27.94
-22.20
-14.97
-7.58
-0.85
5.03
10.29
15.25
20.86
27.62
35.39
43.34
50.33
55.49
58.60
60.07
60.74
63.62
70.86
82.72
97.33
111.92
124.56
135.01
144.29
153.68
167.98
189.62
217.39
246.74
272.48
291.70
304.68
313.69
321.18
335.31
361.20
398.87
442.84
485.45
520.93
547.19
565.27
577.93
597.55
634.27
691.50
763.56
838.31
902.64
946.57
965.14
902.56
731.71
462.08
140.88
-172.48
-435.97
-634.65
-772.58
-861.43
-913.28
-929.37
-911.35
-865.13
-802.17
-735.92
-676.23
-627.17
-588.20
-556.88
-523.95
-483.29
-433.44
-378.84
-327.06
-283.83
-251.01
-227.32
-210.13
-192.54
-169.50
-139.43
-104.67
-70.11
-39.64
-14.91
4.15
18.28
30.16
41.19
50.52
59.56
66.84
71.03
71.78
69.54
65.11
60.08
55.66
52.47
50.43
48.40
45.58
41.53
36.15
29.52
21.85
13.42
4.70
-3.69
-11.47
-18.13
-23.04
-25.70
-25.72
-22.92
-17.38
-9.41
0.52
11.41
22.27
32.14
40.14
45.62
48.21
47.89
45.02
40.18
33.96
26.97
19.73
12.52
5.49
-1.33
-7.95
-14.23
-20.04
-25.23
-29.77
-33.83
-37.73
-41.88
-46.62
-51.97
-57.56
-62.73
-66.82
-69.49
-71.00
-72.28
-74.59
-79.12
-86.50
-96.56
-108.47
-121.15
-133.98
-147.14
-161.74
-179.33
-201.23
-227.77
-258.08
-290.40
-322.67
-353.43
-382.30
-410.07
-438.31
-469.17
-504.93
-547.45
-597.05
-651.25
-704.20
-747.40
-772.12
-772.36
-747.32
-701.52
-642.73
-578.58
-514.00
-450.45
-387.22
-323.52
-260.00
-198.58
-141.10
-87.84
-37.02
14.34
68.79
127.10
187.79
247.80
303.93
354.32
399.14
440.37
480.89
523.52
570.45
622.67
679.56
738.31
793.47
837.55
862.72
863.50
838.87
792.91
733.20
667.99
603.53
542.86
486.36
433.40
383.85
338.31
297.46
261.07
227.58
194.72
160.56
124.37
86.73
49.22
13.46
-19.43
-49.01
-75.29
-98.40
-118.32
-134.88
-147.85
-157.16
-163.04
-166.10
-167.34
-168.03
-169.50
-172.83
-178.58
-186.53
-195.80
-205.18
-213.59
-220.46
-225.85
-230.27
-234.45
-239.06
-244.40
-250.36
-256.40
-261.78
-265.80
-268.06
-268.59
-267.66
-265.48
-261.89
-256.23
-247.54
-234.97
-218.23
-197.78
-174.80
-150.81
-127.33
-105.61
-86.54
-70.73
-58.52
-50.00
-44.98
-43.03
-43.50
-45.72
-49.07
-52.93
-56.57
-59.16
-59.92
-58.26
-54.09
-47.77
-40.08
-31.79
-23.51
-15.52
-7.88
-0.56
6.41
12.93
18.95
24.45
29.45
34.01
38.12
41.68
44.59
46.77
48.27
49.25
50.00
50.83
52.01
53.65
55.65
57.74
59.42
60.22
59.79
58.04
55.10
51.36
47.25
43.23
39.64
36.69
34.45
32.77
31.37
29.89
27.95
25.29
21.90
17.90
13.53
8.99
4.38
-0.34
-5.33
-10.73
-16.71
-23.34
-30.63
-38.45
-46.52
-54.36
-61.35
-66.81
-70.17
-71.16
-69.83
-66.51
-61.66
-55.72
-48.94
-41.38
-33.01
-23.88
-14.20
-4.36
5.16
13.97
21.84
28.76
34.81
40.11
44.70
48.61
51.93
54.79
57.39
59.86
62.12
64.00
65.27
65.75
65.46
64.55
63.21
61.63
59.92
58.15
56.37
54.59
52.74
50.65
48.16
45.05
41.19
36.59
31.33
25.65
19.81
14.06
8.53
3.24
-1.91
-7.08
-12.36
-17.82
-23.48
-29.42
-35.76
-42.64
-49.98
-57.40
-64.15
-69.31
-72.07
-71.98
-69.05
-63.69
-56.57
-48.39
-39.69
-30.92
-22.41
-14.41
-7.13
-0.65
4.99
9.73
13.58
16.47
18.45
19.72
20.69
21.90
23.84
26.71
30.39
34.45
38.40
41.86
44.72
47.10
49.15
50.98
52.47
53.37
53.43
52.56
50.88
48.70
46.29
43.77
41.07
38.07
34.63
30.74
26.46
21.88
17.00
11.79
6.23
0.39
-5.63
-11.79
-18.23
-25.20
-32.93
-41.40
-50.21
-58.71
-66.11
-71.78
-75.29
-76.48
-75.46
-72.48
-67.84
-61.85
-54.66
-46.28
-36.66
-25.82
-14.11
-2.24
8.83
18.29
25.73
31.23
35.27
38.39
41.01
43.37
45.79
48.83
53.24
59.63
67.99
77.48
86.68
94.17
99.28
102.38
104.60
107.03
110.02
112.95
114.47
113.15
108.05
98.80
85.60
68.89
49.28
27.55
4.79
-17.68
-38.46
-56.47
-71.14
-82.49
-91.02
-97.50
-102.70
-107.34
-111.89
-116.41
-120.67
-124.25
-126.72
-127.82
-127.35
-124.99
-120.33
-112.97
-102.94
-90.79
-77.57
-64.37
-51.85
-39.86
-27.67
-14.45
0.23
16.14
32.49
48.27
62.61
74.93
84.89
92.34
97.24
99.68
99.78
97.70
93.69
88.26
82.23
76.69
72.70
70.89
71.26
73.36
76.49
80.13
83.95
87.53
90.04
90.15
86.41
77.95
64.87
48.37
30.32
12.63
-3.37
-17.20
-29.10
-39.71
-49.51
-58.60
-66.59
-72.80
-76.70
-78.23
-77.76
-75.86
-72.91
-68.87
-63.52
-56.67
-48.49
-39.45
-29.96
-19.97
-8.90
3.83
18.18
32.91
45.86
54.74
58.15
56.16
50.25
42.49
34.65
27.61
21.43
15.69
10.10
4.76
0.07
-3.62
-6.27
-8.19
-9.89
-11.73
-13.83
-16.08
-18.31
-20.46
-22.68
-25.31
-28.75
-33.30
-38.95
-45.33
-51.79
-57.58
-62.19
-65.43
-67.56
-69.10
-70.73
-73.01
-76.22
-80.40
-85.22
-90.15
-94.51
-97.61
-98.96
-98.38
-95.90
-91.74
-86.09
-79.08
-70.81
-61.38
-51.00
-39.92
-28.40
-16.75
-5.25
5.74
15.85
24.79
32.41
38.86
44.46
49.60
54.50
59.06
62.94
65.69
66.98
66.66
64.95
62.33
59.48
57.11
55.73
55.58
56.49
57.93
59.17
59.48
58.49
56.18
52.93
49.24
45.46
41.58
37.22
31.92
25.45
18.04
10.29
2.90
-3.68
-9.50
-15.04
-20.95
-27.76
-35.62
-44.30
-53.29
-61.93
-69.53
-75.40
-78.92
-79.67
-77.55
-72.78
-65.78
-57.09
-47.17
-36.39
-25.09
-13.62
-2.35
8.35
18.25
27.21
35.14
41.92
47.40
51.46
54.18
55.87
56.95
57.84
58.66
59.42
59.98
60.30
60.45
60.53
60.57
60.35
59.58
58.02
55.69
52.90
50.08
47.52
45.27
43.10
40.61
37.41
33.34
28.41
22.87
17.02
11.13
5.37
-0.25
-5.83
-11.45
-17.21
-23.15
-29.30
-35.71
-42.46
-49.58
-56.95
-64.26
-70.96
-76.35
-79.75
-80.56
-78.44
-73.37
-65.65
-55.85
-44.67
-32.78
-20.75
-9.04
2.01
12.08
20.83
28.07
33.82
38.34
42.08
45.51
48.84
52.02
54.71
56.48
57.07
56.51
55.12
53.40
51.74
50.39
49.35
48.53
47.78
47.05
46.31
45.50
44.42
42.86
40.59
37.55
33.82
29.61
25.11
20.42
15.56
10.52
5.39
0.25
-4.85
-9.93
-15.20
-20.91
-27.28
-34.45
-42.30
-50.46
-58.35
-65.19
-70.19
-72.68
-72.28
-69.02
-63.37
-56.02
-47.64
-38.77
-29.67
-20.36
-10.85
-1.29
7.93
16.26
23.17
28.36
31.88
34.08
35.48
36.54
37.48
38.36
39.09
39.62
40.02
40.41
40.93
41.59
42.24
42.63
42.56
41.95
40.90
39.59
38.14
36.49
34.42
31.69
28.26
24.36
20.47
16.99
14.06
11.45
8.63
5.10
0.65
-4.54
-10.07
-15.51
-20.61
-25.32
-29.83
-34.38
-39.20
-44.42
-50.11
-56.16
-62.29
-68.03
-72.70
-75.63
-76.28
-74.38
-69.98
-63.42
-55.19
-45.83
-35.82
-25.48
-15.05
-4.71
5.26
14.51
22.63
29.27
34.23
37.61
39.78
41.26
42.51
43.88
45.40
46.90
48.16
48.98
49.26
49.03
48.33
47.20
45.65
43.71
41.45
39.00
36.48
33.97
31.46
28.88
26.11
23.06
19.67
15.92
11.82
7.50
3.09
-1.20
-5.28
-9.13
-12.86
-16.63
-20.53
-24.55
-28.64
-32.81
-37.25
-42.27
-48.13
-54.75
-61.62
-67.81
-72.26
-74.13
-73.09
-69.40
-63.67
-56.70
-49.05
-41.02
-32.68
-23.90
-14.59
-4.80
5.30
15.43
25.18
34.02
41.34
46.59
49.41
49.85
48.43
45.95
43.34
41.36
40.39
40.39
41.06
41.87
42.31
41.99
40.64
38.23
34.91
31.06
27.12
23.51
20.51
18.28
16.86
16.20
16.21
16.82
17.88
19.16
20.32
20.90
20.44
18.64
15.48
11.29
6.62
2.07
-1.91
-5.16
-7.88
-10.66
-14.12
-18.67
-24.14
-29.69
-34.13
-36.43
-36.28
-34.18
-31.04
-27.58
-23.88
-19.60
-14.52
-9.11
-4.56
-2.15
-2.39
-4.65
-7.47
-9.48
-10.00
-9.35
-8.13
-6.59
-4.32
-0.61
4.69
10.77
15.91
18.48
17.92
15.15
12.19
11.05
12.63
16.39
20.79
24.30
26.18
26.68
26.40
25.73
24.29
21.14
15.41
6.87
-3.76
-15.07
-25.44
-33.65
-39.20
-42.46
-44.48
-46.58
-49.81
-54.43
-59.74
-64.43
-67.42
-68.45
-68.37
-68.50
-69.64
-71.27
-71.48
-67.77
-58.34
-43.02
-23.32
-1.91
18.52
36.07
50.00
60.51
68.24
73.86
77.75
80.09
80.93
80.32
78.39
75.27
70.99
65.40
58.26
49.34
38.78
27.20
15.64
5.17
-3.50
-10.15
-14.96
-18.07
-19.22
-17.83
-13.39
-5.92
3.76
14.18
23.67
30.83
34.84
35.43
32.91
28.20
22.73
18.16
15.81
16.08
18.15
20.33
20.93
19.01
14.71
8.86
2.37
-4.37
-11.56
-19.58
-28.59
-38.39
-48.60
-58.89
-69.10
-79.13
-88.60
-96.79
-102.74
-105.57
-104.76
-100.34
-92.79
-82.87
-71.38
-58.93
-45.76
-31.82
-16.95
-1.23
14.82
30.33
44.58
57.39
69.25
80.93
92.84
104.52
114.54
121.16
123.20
120.76
115.17
108.42
102.12
96.88
92.21
87.04
80.64
73.16
65.71
59.86
56.86
57.00
59.60
63.52
67.92
72.87
79.24
88.17
100.13
114.57
129.90
144.09
155.53
163.51
168.41
171.41
173.83
176.79
180.87
186.20
192.57
199.69
207.16
214.57
221.41
227.18
231.60
234.76
236.92
238.19
238.11
235.56
229.04
217.43
200.58
179.53
156.19
132.53
110.01
89.28
70.34
52.97
36.86
21.49
6.02
-10.87
-30.57
-54.00
-81.03
-110.50
-140.60
-169.44
-195.83
-219.61
-241.66
-263.84
-288.66
-318.64
-355.10
-396.55
-437.88
-471.50
-490.11
-490.39
-475.43
-454.28
-438.73
-438.84
-459.45
-499.31
-552.47
-610.57
-664.75
-706.67
-728.96
-726.19
-696.18
-640.97
-566.45
-480.53
-390.51
-301.35
-215.42
-133.32
-55.26
18.60
88.21
154.31
218.37
282.02
346.28
411.31
477.04
543.59
611.33
679.74
746.13
804.83
848.30
869.74
865.79
838.07
792.10
734.75
671.28
604.50
536.19
469.62
410.72
366.42
341.10
333.10
334.33
333.45
321.08
294.11
256.60
217.25
184.47
162.91
152.32
149.30
150.02
152.06
154.43
156.26
155.68
149.46
134.21
107.41
68.57
19.26
-37.74
-99.39
-163.42
-228.50
-294.09
-359.64
-424.19
-486.44
-544.92
-598.52
-647.40
-693.31
-739.20
-788.79
-845.72
-912.25
-987.85
-1067.87
-1143.62
-1204.67
-1241.99
-1250.90
-1232.39
-1192.17
-1137.97
-1076.69
-1012.04
-944.04
-871.49
-793.96
-712.26
-628.13
-543.33
-458.91
-376.22
-296.19
-218.46
-144.00
-75.21
-14.12
38.28
82.34
119.43
149.31
172.31
192.01
209.98
225.35
237.52
246.45
252.90
258.23
260.87
260.24
261.31
265.95
271.88
276.80
279.03
278.14
274.94
266.87
252.73
238.64
226.87
214.72
199.82
180.84
157.61
156.99
191.05
220.93
232.86
236.19
233.82
228.12
221.20
215.04
211.38
207.36
201.18
198.65
202.40
210.42
220.91
232.50
244.42
256.65
266.69
273.85
283.82
299.39
318.50
337.48
351.69
356.91
351.01
332.75
304.23
272.72
243.60
218.51
197.36
178.80
160.62
139.98
112.59
74.79
26.43
-30.38
-91.37
-150.53
-202.64
-245.46
-279.92
-308.78
-333.44
-351.85
-360.02
-354.47
-334.44
-302.80
-264.96
-226.19
-189.53
-155.00
-120.73
-84.68
-46.04
-5.31
36.52
79.00
122.45
167.34
213.19
257.91
298.10
330.19
351.92
363.30
366.51
364.83
361.26
357.50
353.77
349.52
344.31
338.44
332.79
328.33
325.31
323.09
320.36
315.90
309.14
300.43
290.58
280.14
268.80
255.41
238.53
217.28
191.92
163.82
134.75
106.18
78.70
52.08
25.70
-0.94
-27.89
-54.74
-80.82
-105.40
-127.74
-147.17
-163.04
-174.90
-182.68
-186.89
-188.38
-188.15
-186.97
-185.01
-181.86
-176.75
-169.07
-158.77
-146.61
-133.85
-122.10
-112.93
-107.66
-107.02
-110.97
-118.76
-128.96
-139.92
-149.97
-158.08
-164.23
-169.24
-174.22
-179.74
-185.36
-189.61
-190.53
-185.77
-174.09
-155.98
-133.66
-110.13
-88.02
-68.99
-53.48
-40.91
-28.81
-14.89
1.75
19.92
37.03
50.42
58.61
62.02
62.88
66.48
77.44
97.18
122.99
149.63
172.11
187.89
197.43
203.53
212.38
228.78
253.92
284.99
317.27
346.77
371.37
390.46
387.79
353.46
289.30
210.07
133.98
72.99
30.61
5.00
-7.99
-12.74
-9.62
-0.14
12.96
25.47
33.32
34.44
29.18
19.21
6.23
-7.11
-18.20
-26.70
-34.48
-44.28
-58.13
-76.82
-99.75
-124.96
-147.89
-163.39
-167.44
-158.63
-138.57
-111.24
-81.68
-54.57
-33.02
-17.64
-7.99
-3.97
-6.48
-16.63
-34.11
-56.07
-77.29
-91.75
-94.83
-85.29
-65.72
-41.11
-16.39
5.45
23.60
38.31
49.50
56.03
56.39
50.09
38.69
25.62
14.82
8.83
7.63
8.93
9.57
7.21
1.48
-6.21
-13.91
-20.47
-26.31
-32.92
-41.78
-53.18
-66.00
-78.28
-88.24
-94.84
-97.87
-97.33
-92.97
-84.41
-71.73
-56.21
-40.43
-27.57
-20.20
-19.39
-24.68
-34.53
-47.21
-61.27
-75.67
-89.54
-102.24
-113.32
-122.79
-131.40
-140.42
-151.37
-165.46
-183.11
-203.73
-225.84
-247.61
-267.40
-284.31
-298.44
-310.76
-322.46
-333.99
-344.33
-350.83
-349.90
-338.37
-314.89
-280.76
-239.64
-196.34
-155.10
-118.42
-86.93
-59.93
-36.56
-16.49
-0.03
12.34
20.54
25.18
27.48
28.89
30.90
34.96
42.46
54.54
71.39
91.60
111.99
128.30
136.69
135.22
124.61
107.93
89.27
72.25
59.16
50.77
46.90
46.90
49.85
54.56
59.67
64.16
67.95
72.09
78.10
86.79
97.09
106.00
109.50
104.32
89.38
66.13
37.70
7.11
-23.93
-55.27
-87.14
-118.63
-146.78
-166.99
-174.61
-166.87
-143.93
-108.81
-66.26
-21.41
21.33
58.64
88.30
109.07
120.72
124.08
120.93
113.60
104.30
94.54
84.84
74.85
63.89
51.64
38.61
26.35
17.09
13.03
15.57
24.69
39.02
56.45
74.93
93.18
110.78
127.82
144.40
160.10
174.01
185.04
192.32
195.33
193.81
187.58
176.51
160.82
141.48
120.56
100.83
84.90
74.05
67.47
62.32
54.81
41.91
22.88
-0.05
-22.28
-38.55
-45.02
-40.75
-28.08
-11.44
4.43
16.35
23.46
26.98
28.92
30.90
33.41
35.88
37.38
37.17
34.79
29.87
21.79
9.75
-6.75
-27.45
-51.11
-76.10
-101.20
-126.36
-152.58
-180.94
-211.20
-241.07
-266.57
-283.65
-290.01
-286.21
-275.15
-260.45
-244.46
-227.24
-206.89
-180.99
-148.42
-110.30
-69.64
-30.04
5.85
37.15
64.54
89.13
111.19
129.66
142.67
148.86
148.43
143.36
136.48
130.12
125.24
121.53
118.26
115.19
112.81
111.55
111.02
109.64
105.13
95.73
81.24
63.37
45.21
30.03
20.20
16.58
18.44
23.84
30.36
36.00
39.64
41.30
42.09
43.79
48.40
57.72
72.81
93.59
118.69
145.44
170.39
190.08
201.85
204.54
198.67
186.38
170.84
155.40
142.71
133.88
128.18
123.23
115.99
103.99
86.40
64.43
40.89
19.12
1.89
-9.43
-15.22
-17.47
-19.27
-23.95
-34.02
-50.32
-71.66
-95.06
-116.74
-133.26
-142.33
-143.03
-135.54
-120.89
-100.81
-77.91
-55.64
-37.88
-27.84
-26.86
-33.73
-44.99
-56.30
-64.11
-66.99
-65.92
-63.52
-62.78
-65.61
-72.15
-80.64
-88.16
-91.73
-89.35
-80.74
-67.33
-51.62
-36.25
-23.20
-13.37
-6.62
-2.06
1.58
5.63
11.33
19.58
30.77
44.61
60.10
75.77
89.92
100.92
107.47
108.69
104.27
94.50
80.34
63.25
45.04
27.42
11.79
-0.87
-9.97
-15.32
-17.25
-16.74
-15.38
-14.92
-16.57
-20.47
-25.48
-29.62
-30.81
-27.72
-20.14
-8.75
5.45
21.75
39.78
59.27
79.49
99.10
116.35
129.69
138.42
142.78
143.72
142.36
139.46
135.26
129.64
122.36
113.32
102.59
90.41
77.16
63.40
49.93
37.72
27.72
20.59
16.45
14.80
14.77
15.60
16.83
18.30
19.97
21.64
22.97
23.53
23.26
22.67
23.08
25.98
32.29
41.74
52.80
63.30
71.41
76.34
78.68
80.46
84.01
91.14
102.47
117.28
133.88
150.10
163.65
172.25
174.80
170.35
157.89
136.16
104.16
61.89
11.12
-44.76
-101.52
-152.73
-192.75
-218.20
-229.00
-228.36
-221.60
-214.84
-213.74
-221.94
-236.10
-248.38
-248.81
-229.55
-188.31
-129.15
-60.82
6.42
64.43
114.21
162.06
215.77
280.11
355.11
438.04
525.96
616.71
680.44
690.51
630.92
507.39
345.26
175.70
23.67
-96.84
-182.23
-236.54
-263.70
-267.82
-252.67
-223.13
-185.74
-147.60
-114.75
-90.94
-76.78
-68.34
-59.88
-46.62
-27.21
-4.05
18.68
37.34
50.11
57.26
61.92
68.24
79.37
95.87
115.47
134.40
148.64
154.49
153.53
147.28
137.48
125.44
111.48
95.07
75.68
53.37
29.07
4.37
-19.22
-40.17
-57.36
-70.34
-79.06
-83.63
-84.08
-80.53
-73.56
-65.00
-57.29
-53.11
-54.75
-63.38
-78.78
-99.54
-123.62
-149.18
-175.54
-202.88
-232.15
-264.71
-301.83
-344.06
-390.33
-437.18
-478.55
-506.83
-514.81
-498.25
-457.80
-399.34
-332.23
-266.31
-208.99
-163.72
-130.22
-105.98
-88.02
-74.07
-62.79
-53.16
-43.86
-32.93
-18.16
2.16
28.41
59.07
91.04
120.46
143.84
159.05
165.66
164.57
157.38
145.71
130.92
114.18
96.58
79.14
62.59
47.05
31.93
16.23
-0.89
-19.54
-38.81
-57.06
-72.94
-85.06
-93.60
-99.82
-105.52
-112.25
-120.61
-129.97
-138.56
-144.46
-145.18
-139.46
-127.47
-110.37
-89.92
-67.99
-46.26
-26.06
-9.12
5.22
17.16
26.90
34.89
41.75
48.00
53.99
59.73
62.67
65.33
67.66
69.06
69.24
68.27
66.33
63.39
58.99
47.64
34.70
20.61
4.35
-14.21
-34.19
-54.05
-72.55
-89.19
-111.85
-131.86
-149.37
-168.65
-192.44
-220.62
-250.46
-278.78
-303.90
-336.43
-366.58
-396.26
-432.83
-479.38
-533.12
-587.15
-635.66
-612.50
-603.53
-601.32
-609.01
-633.66
-673.73
-718.29
-750.78
-756.68
-728.45
-676.08
-592.26
-433.88
-194.17
95.75
379.00
605.68
754.61
832.27
851.63
844.63
828.25
802.37
764.45
714.13
657.40
602.50
555.66
513.57
480.04
451.17
416.09
367.53
304.44
232.93
160.56
93.66
34.58
-8.79
-32.07
-37.53
-29.62
-12.99
8.01
28.87
47.96
59.24
60.60
52.29
34.39
7.91
-23.25
-53.66
-78.33
-94.22
-102.65
-104.62
-101.62
-96.21
-89.97
-80.42
-64.21
-38.95
-4.10
39.50
88.77
140.57
191.86
240.31
287.53
334.86
381.97
426.20
463.59
490.85
505.94
508.06
479.16
413.25
317.26
208.14
102.98
11.99
-61.83
-119.62
-163.86
-196.50
-215.74
-221.46
-215.17
-200.79
-183.34
-166.95
-153.87
-144.33
-136.97
-127.51
-112.74
-91.34
-65.18
-36.70
-8.18
17.79
37.03
43.69
32.91
1.30
-51.20
-120.94
-201.52
-286.30
-370.63
-452.00
-528.19
-594.14
-642.15
-664.19
-655.67
-618.25
-559.96
-492.47
-426.63
-369.03
-320.62
-278.48
-238.87
-199.47
-159.87
-120.60
-81.74
-42.19
-0.15
45.72
95.22
146.22
194.92
237.15
269.54
290.37
299.81
299.46
291.61
278.50
261.89
243.09
223.34
204.09
187.12
174.38
167.57
167.69
174.88
188.34
206.60
227.90
250.61
273.72
297.13
321.70
348.72
378.94
411.37
442.91
468.75
483.76
484.23
468.85
438.76
396.69
346.03
290.24
232.89
177.72
128.36
87.32
54.91
28.92
5.41
-19.52
-47.92
-79.09
-110.10
-137.11
-156.87
-167.63
-169.16
-162.16
-147.62
-126.58
-100.21
-70.15
-38.73
-8.97
15.87
32.88
40.12
36.92
23.92
2.40
-26.42
-61.87
-103.32
-149.14
-195.68
-237.22
-267.35
-281.35
-278.23
-261.36
-237.19
-212.75
-193.36
-181.47
-177.08
-178.77
-184.51
-191.92
-198.11
-199.77
-194.01
-179.42
-156.85
-129.21
-100.24
-73.23
-49.89
-30.38
-14.11
-0.66
9.54
15.58
16.90
14.17
9.68
6.79
8.69
17.28
32.53
52.73
75.34
97.85
118.14
134.54
145.64
150.41
148.58
141.04
129.76
117.14
105.06
94.13
83.71
72.51
59.61
45.07
29.92
15.66
3.66
-5.35
-11.22
-14.26
-15.11
-14.57
-13.56
-12.91
-13.07
-14.00
-15.27
-16.31
-16.78
-16.68
-16.16
-15.25
-13.66
-10.91
-6.58
-0.52
7.18
16.28
26.55
37.62
48.78
58.76
65.98
69.22
68.25
64.12
58.67
53.68
49.81
46.32
41.62
34.20
23.71
11.26
-1.00
-10.81
-16.74
-18.69
-17.76
-15.72
-14.38
-15.08
-18.50
-24.66
-33.01
-42.61
-52.26
-60.69
-66.68
-69.24
-67.71
-61.94
-52.42
-40.23
-26.96
-14.09
-2.56
7.67
17.36
27.49
38.29
48.87
57.37
61.77
60.92
55.03
45.57
34.53
23.67
14.05
6.20
0.26
-3.91
-6.84
-9.54
-13.22
-18.66
-25.60
-32.71
-38.22
-40.90
-40.77
-39.07
-37.47
-37.24
-38.79
-41.70
-45.29
-48.90
-51.96
-53.71
-53.04
-48.78
-40.15
-27.18
-10.91
6.94
24.41
39.75
51.64
59.30
62.54
61.90
58.60
54.31
50.65
48.69
48.68
50.21
52.59
55.35
58.41
62.01
66.23
70.62
74.29
76.12
75.25
71.47
65.19
57.30
48.81
40.70
33.82
28.89
26.36
26.31
28.25
31.08
33.36
33.67
30.94
24.78
15.53
4.25
-7.47
-17.74
-24.86
-27.73
-26.18
-20.91
-13.07
-3.84
6.02
16.19
26.68
37.53
48.52
59.22
68.86
76.55
81.30
82.21
78.67
70.75
59.31
46.01
32.99
22.28
15.25
12.22
12.50
14.95
18.74
23.96
32.23
45.66
65.61
91.47
120.21
147.06
167.10
177.07
176.08
165.72
148.71
127.78
105.75
85.70
70.44
61.17
56.12
50.37
38.47
16.77
-14.05
-48.30
-77.29
-93.10
-92.10
-76.63
-53.73
-29.65
-8.98
6.33
16.42
22.46
25.95
28.14
29.69
30.66
35.49
48.43
71.67
104.00
141.19
178.27
211.58
239.04
259.83
280.66
306.91
339.49
373.64
401.69
418.06
422.45
419.64
417.09
430.77
472.46
545.46
643.39
754.15
866.54
974.55
1077.17
1117.67
1056.21
878.79
608.45
293.30
-17.92
-291.38
-510.16
-670.80
-779.31
-838.57
-854.63
-836.30
-794.72
-741.31
-685.31
-633.90
-592.88
-566.48
-549.39
-534.06
-513.84
-486.10
-452.35
-416.44
-383.86
-360.00
-348.24
-344.48
-342.31
-335.92
-322.98
-305.09
-286.79
-271.49
-263.94
-267.59
-281.59
-303.63
-331.29
-362.58
-394.77
-412.27
-400.76
-353.61
-276.60
-184.64
-95.00
-20.57
33.01
67.01
86.91
97.52
101.44
99.93
94.23
86.62
80.11
77.01
77.63
79.73
78.28
68.26
47.93
20.27
-8.65
-31.76
-44.19
-44.96
-36.87
-25.51
-16.31
-12.06
-12.30
-14.41
-15.45
-13.82
-9.59
-4.23
-0.08
0.65
-3.24
-11.65
-23.36
-36.47
-48.96
-58.95
-65.08
-66.21
-62.34
-54.40
-44.09
-33.51
-24.58
-18.68
-16.24
-16.77
-19.02
-21.63
-23.52
-24.25
-24.09
-23.69
-23.90
-25.42
-28.73
-33.91
-40.83
-48.95
-57.37
-64.98
-70.89
-74.85
-77.32
-79.07
-80.57
-81.68
-81.90
-81.17
-80.70
-83.04
-91.02
-105.90
-126.09
-146.89
-161.84
-165.01
-153.19
-127.04
-90.54
-49.33
-8.49
28.68
60.88
88.13
110.66
128.23
140.09
145.70
145.49
141.54
136.75
133.82
134.26
137.87
143.14
148.03
151.01
151.55
150.93
150.82
152.54
156.39
161.67
167.10
171.38
173.54
173.09
171.47
169.95
169.05
168.42
167.44
165.89
164.22
163.32
163.92
168.62
178.82
194.36
213.66
234.73
256.08
277.03
297.19
315.88
334.83
354.36
372.78
386.55
391.85
386.21
369.45
343.44
292.83
212.45
107.73
-6.07
-111.31
-195.94
-256.23
-294.50
-315.84
-325.97
-326.78
-319.62
-306.20
-289.47
-272.41
-257.33
-245.23
-236.30
-230.83
-226.98
-223.70
-221.09
-220.03
-220.96
-222.89
-223.61
-218.61
-206.07
-185.85
-160.51
-133.91
-109.40
-88.15
-69.03
-49.67
-28.61
-5.90
16.32
35.07
48.39
55.96
58.31
55.70
48.17
35.65
18.70
-0.65
-19.67
-36.39
-50.97
-65.49
-84.23
-107.87
-134.07
-157.92
-173.34
-175.32
-162.17
-136.50
-104.22
-72.13
-45.12
-25.20
-11.61
-2.00
5.99
14.45
23.87
34.08
44.88
56.57
69.32
82.76
95.61
105.91
111.76
112.20
107.99
101.49
95.87
93.40
94.37
96.73
96.89
91.09
76.87
54.09
25.05
-6.14
-35.01
-57.84
-72.65
-79.41
-79.83
-76.59
-72.31
-68.81
-66.74
-65.81
-65.21
-64.16
-62.23
-59.33
-55.57
-51.11
-46.09
-40.73
-35.44
-30.75
-27.15
-24.86
-23.75
-23.42
-23.41
-23.34
-23.03
-22.40
-21.45
-20.20
-18.70
-17.12
-15.74
-14.85
-14.66
-15.16
-16.08
-17.02
-17.55
-17.27
-15.95
-13.51
-10.00
-5.65
-0.77
4.32
9.39
14.20
18.58
22.24
24.91
26.37
26.62
25.93
24.76
23.53
22.46
21.49
20.39
18.95
17.17
15.21
13.37
11.81
10.57
9.47
8.25
6.66
4.54
1.92
-1.07
-4.12
-6.92
-9.29
-11.20
-12.87
-14.69
-17.02
-20.08
-23.81
-27.89
-31.88
-35.30
-37.81
-39.24
-39.55
-38.84
-37.19
-34.68
-31.35
-27.13
-21.96
-15.78
-8.68
-0.90
7.03
14.48
20.81
25.62
28.81
30.60
31.39
31.53
31.27
30.69
29.82
28.74
27.62
26.65
25.90
25.32
24.69
23.75
22.29
20.22
17.67
14.81
11.89
9.06
6.40
3.77
0.97
-2.21
-5.86
-9.87
-13.98
-17.81
-21.04
-23.49
-25.13
-25.95
-25.91
-24.87
-22.61
-18.97
-13.93
-7.79
-1.00
5.81
12.14
17.70
22.50
26.81
30.97
35.20
39.36
43.05
45.64
46.61
45.75
43.21
39.49
35.14
30.74
26.67
23.18
20.37
18.22
16.61
15.30
13.98
12.32
10.15
7.43
4.35
1.23
-1.64
-3.99
-5.79
-7.13
-8.33
-9.74
-11.63
-14.08
-16.87
-19.58
-21.70
-22.85
-22.86
-21.82
-19.94
-17.42
-14.34
-10.63
-6.24
-1.15
4.40
10.05
15.28
19.56
22.51
23.93
23.85
22.52
20.34
17.74
15.07
12.60
10.41
8.55
7.04
5.96
5.42
5.61
6.67
8.63
11.42
14.75
18.21
21.27
23.45
24.37
23.94
22.33
19.88
17.00
13.93
10.78
7.45
3.83
-0.11
-4.26
-8.28
-11.76
-14.24
-15.42
-15.05
-13.16
-9.89
-5.55
-0.59
4.47
9.10
12.89
15.56
17.05
17.46
17.05
16.11
14.89
13.61
12.33
11.10
9.86
8.61
7.37
6.21
5.26
4.54
4.06
3.72
3.45
3.19
2.90
2.57
2.15
1.62
0.92
0.08
-0.84
-1.70
-2.38
-2.77
-2.81
-2.59
-2.28
-2.15
-2.37
-2.96
-3.69
-4.08
-3.70
-2.22
0.27
3.41
6.76
9.94
12.77
15.24
17.41
19.29
20.85
22.00
22.66
22.74
22.14
20.82
18.80
16.24
13.37
10.48
7.79
5.32
2.92
0.31
-2.73
-6.28
-10.21
-14.30
-18.22
-21.72
-24.64
-26.89
-28.54
-29.67
-30.44
-31.00
-31.55
-32.25
-33.32
-34.95
-37.21
-40.02
-43.06
-45.83
-47.72
-48.21
-46.92
-43.73
-38.73
-32.22
-24.63
-16.49
-8.37
-0.80
5.77
11.10
15.11
17.92
19.75
20.81
21.33
21.40
21.07
20.28
18.97
17.12
14.79
12.20
9.68
7.65
6.41
6.09
6.53
7.33
8.00
8.07
7.31
5.72
3.50
0.98
-1.52
-3.77
-5.72
-7.45
-9.22
-11.31
-13.94
-17.13
-20.61
-23.92
-26.52
-27.97
-28.06
-26.83
-24.45
-21.08
-16.84
-11.83
-6.23
-0.43
5.04
9.67
13.13
15.42
16.87
18.04
19.40
21.22
23.49
25.94
28.22
30.06
31.31
31.99
32.19
32.02
31.57
30.91
30.05
29.00
27.80
26.52
25.26
24.08
22.91
21.54
19.61
16.67
12.38
6.67
-0.20
-7.59
-14.67
-20.61
-24.81
-27.01
-27.31
-26.13
-24.01
-21.41
-18.59
-15.49
-11.84
-7.30
-1.70
4.84
11.84
18.61
24.36
28.55
30.96
31.75
31.43
30.67
30.16
30.39
31.55
33.50
35.88
38.33
40.52
42.28
43.54
44.25
44.38
43.90
42.85
41.30
39.41
37.30
35.09
32.88
30.64
28.16
25.02
20.54
14.10
5.43
-5.07
-16.28
-26.83
-35.55
-41.97
-46.33
-49.24
-51.18
-52.18
-51.86
-49.84
-46.15
-41.38
-36.39
-31.86
-27.86
-23.93
-19.37
-13.79
-7.38
-0.90
4.67
8.59
10.66
11.25
11.05
10.73
10.60
10.54
10.07
8.63
5.86
1.74
-3.43
-9.11
-14.77
-19.99
-24.53
-28.24
-30.97
-32.67
-33.38
-33.47
-33.56
-34.40
-36.46
-39.67
-43.31
-46.29
-47.51
-46.26
-42.39
-36.08
-27.56
-16.97
-4.43
9.66
24.33
38.10
49.38
56.99
60.67
61.22
60.14
59.16
59.73
62.66
68.06
75.44
83.78
91.69
97.65
100.28
98.76
92.96
83.52
71.44
57.59
42.38
25.60
6.81
-14.25
-37.14
-60.66
-83.09
-102.67
-118.10
-128.81
-135.01
-137.49
-137.29
-135.28
-131.86
-127.01
-120.40
-111.78
-101.24
-89.26
-76.61
-64.18
-52.75
-42.90
-34.90
-28.65
-23.68
-19.18
-14.30
-8.31
-0.90
7.86
17.54
27.69
37.89
47.76
56.87
64.63
70.50
74.15
75.70
75.63
74.60
73.11
71.45
69.69
67.91
66.29
65.04
64.28
63.85
63.30
62.03
59.57
55.71
50.65
44.80
38.69
32.86
27.72
23.55
20.41
18.12
16.24
14.17
11.37
7.60
3.02
-1.75
-5.79
-8.14
-8.20
-5.91
-1.92
2.63
6.41
8.37
7.99
5.39
1.14
-4.01
-9.39
-14.57
-19.28
-23.34
-26.56
-28.67
-29.44
-28.80
-26.86
-23.94
-20.41
-16.61
-12.76
-8.90
-4.99
-0.93
3.31
7.56
11.45
14.57
16.53
17.17
16.66
15.38
13.87
12.58
11.79
11.57
11.90
12.84
14.44
16.82
20.05
24.17
29.20
35.27
42.57
51.34
61.76
73.85
87.40
101.97
116.98
131.77
145.70
158.28
169.16
178.18
185.35
190.78
194.65
197.22
198.89
200.15
201.51
203.33
205.64
208.15
210.34
211.67
211.75
210.41
207.56
203.17
197.34
190.41
183.10
176.47
171.67
169.54
170.31
173.43
177.83
182.25
185.58
187.08
186.38
183.43
178.31
171.29
162.72
153.12
143.05
133.08
123.70
115.18
107.62
100.88
94.73
88.88
83.07
77.13
70.92
64.34
57.30
49.75
41.62
32.91
23.70
14.16
4.53
-4.93
-13.97
-22.41
-30.12
-37.07
-43.23
-48.66
-53.42
-57.58
-61.89
-66.97
-73.04
-79.83
-86.84
-93.69
-100.06
-106.14
-112.14
-118.79
-126.61
-135.59
-145.25
-154.84
-163.78
-171.61
-178.45
-184.46
-191.33
-200.25
-211.33
-223.38
-234.61
-243.58
-249.11
-251.38
-250.80
-251.93
-258.22
-270.18
-284.95
-298.16
-306.51
-307.50
-302.55
-293.72
-291.50
-303.99
-333.06
-373.48
-416.63
-455.79
-485.50
-507.99
-526.38
-556.84
-611.26
-691.47
-787.94
-885.76
-973.13
-1040.56
-1091.04
-1129.35
-1177.22
-1250.80
-1353.05
-1472.18
-1589.11
-1688.65
-1758.47
-1802.51
-1713.65
-1430.54
-962.74
-397.16
155.60
621.33
940.98
1155.06
1300.06
1400.13
1451.72
1449.05
1399.31
1318.24
1227.05
1142.44
1077.96
1030.72
995.15
952.82
890.09
803.83
702.07
598.42
503.37
425.72
363.25
314.07
270.33
227.75
186.94
152.30
128.75
117.66
119.51
129.00
141.88
151.36
152.29
142.19
122.02
95.67
67.83
43.80
25.02
11.15
-1.12
-15.34
-33.66
-55.60
-78.29
-98.02
-111.30
-117.04
-115.86
-109.58
-100.50
-90.61
-81.02
-71.82
-62.27
-51.40
-38.53
-23.49
-6.79
10.58
27.34
42.36
54.76
64.12
70.54
74.60
77.17
79.17
81.33
83.97
86.96
89.82
91.94
92.84
92.31
90.38
87.19
82.81
77.28
70.65
63.17
55.31
47.74
40.97
35.17
30.04
24.89
18.93
11.52
2.55
-7.64
-18.28
-28.55
-37.77
-45.67
-52.51
-58.89
-65.59
-73.35
-82.58
-93.23
-104.97
-117.24
-129.62
-142.13
-155.32
-170.27
-188.23
-210.11
-235.91
-264.31
-292.72
-317.62
-335.53
-343.82
-341.45
-329.20
-309.25
-284.50
-257.57
-230.38
-203.89
-178.30
-153.52
-129.45
-106.15
-83.82
-62.83
-43.69
-27.14
-14.21
-6.12
-3.98
-8.42
-19.35
-35.76
-55.97
-77.90
-99.55
-119.34
-136.25
-149.83
-159.97
-166.69
-170.01
-169.95
-166.64
-160.42
-151.90
-141.86
-131.13
-120.30
-109.63
-99.00
-88.05
-76.43
-63.96
-50.74
-37.04
-23.19
-9.22
5.15
20.50
37.53
56.74
78.21
101.55
126.04
150.93
175.64
199.94
223.95
248.03
272.68
298.36
325.12
352.24
377.86
399.08
412.71
416.27
409.05
392.44
369.49
343.72
318.04
294.09
272.42
253.08
236.19
222.09
211.06
202.89
196.67
191.03
184.57
176.29
165.79
153.27
139.34
124.89
110.89
98.31
87.81
79.54
72.96
66.94
60.07
51.32
40.52
28.62
17.36
8.60
3.55
2.34
4.09
7.41
11.03
14.19
16.62
18.29
19.03
18.51
16.37
12.56
7.55
2.25
-2.15
-4.61
-4.50
-1.68
3.43
10.11
17.53
24.96
31.92
38.19
43.64
48.17
51.50
53.28
53.19
51.17
47.52
42.91
38.06
33.55
29.58
25.94
22.14
17.66
12.10
5.33
-2.43
-10.57
-18.14
-24.02
-27.31
-27.71
-25.72
-22.65
-20.42
-21.36
-28.08
-43.24
-68.93
-105.82
-152.30
-204.20
-255.39
-299.12
-329.61
-343.27
-339.17
-318.79
-285.32
-242.97
-196.29
-149.59
-106.34
-68.79
-37.84
-13.22
6.00
21.09
33.35
44.06
54.34
64.94
75.92
86.69
96.29
103.89
109.19
112.54
114.62
115.98
116.73
116.43
114.50
110.49
104.43
96.78
88.27
79.57
71.12
63.08
55.41
47.92
40.46
32.97
25.54
18.40
11.73
5.54
-0.48
-6.79
-13.74
-21.26
-28.80
-35.41
-40.16
-42.45
-42.15
-39.45
-34.68
-28.11
-19.97
-10.65
-0.77
8.82
17.38
24.56
30.53
35.92
41.45
47.71
54.83
62.48
70.03
76.56
81.20
83.17
82.05
77.88
71.26
63.23
55.07
47.95
42.62
39.31
37.71
37.17
37.00
36.66
35.84
34.44
32.43
29.73
26.18
21.63
16.10
9.88
3.45
-2.64
-7.99
-12.32
-15.48
-17.19
-17.03
-14.55
-9.50
-2.16
6.59
15.48
23.18
28.85
32.37
34.26
35.32
36.19
37.05
37.68
37.75
37.07
35.82
34.41
33.24
32.46
31.98
31.45
30.50
28.84
26.24
22.52
17.51
11.12
3.42
-5.28
-14.48
-23.56
-32.00
-39.47
-45.85
-51.20
-55.63
-59.11
-61.42
-62.23
-61.15
-57.99
-52.83
-46.09
-38.37
-30.26
-22.19
-14.36
-6.89
0.11
6.43
11.81
16.07
19.22
21.51
23.28
24.90
26.52
28.14
29.65
31.01
32.34
33.86
35.80
38.20
40.86
43.34
45.23
46.32
46.81
47.28
48.49
51.07
55.28
60.92
67.42
74.13
80.55
86.56
92.37
98.38
105.02
112.64
121.42
131.38
142.36
154.06
166.01
177.62
188.40
198.04
206.68
214.70
222.62
230.64
238.43
245.29
250.40
253.32
254.29
254.17
253.96
254.28
254.92
254.77
252.27
246.02
235.30
220.36
202.26
182.50
162.47
143.15
124.95
107.81
91.54
76.03
61.36
47.78
35.41
24.12
13.48
2.83
-8.46
-20.99
-35.42
-52.42
-72.47
-95.05
-118.03
-137.52
-148.71
-147.49
-131.99
-103.42
-65.53
-23.21
19.01
57.78
90.94
116.93
134.41
142.60
141.83
134.03
122.34
110.23
100.20
93.01
87.74
82.39
74.95
64.09
49.61
32.15
12.82
-7.32
-27.62
-47.84
-68.07
-88.34
-108.44
-127.71
-145.24
-160.09
-171.64
-179.78
-184.97
-188.10
-190.30
-192.84
-196.89
-203.26
-211.95
-221.87
-230.83
-236.07
-235.33
-227.67
-214.02
-196.82
-178.95
-162.55
-148.29
-135.41
-122.45
-108.19
-92.27
-75.11
-57.61
-40.76
-25.61
-13.56
-6.33
-5.50
-11.85
-24.54
-41.07
-57.87
-71.42
-79.29
-80.61
-75.98
-66.93
-55.61
-44.42
-35.91
-32.33
-35.01
-43.70
-56.43
-70.00
-81.01
-86.98
-87.07
-82.25
-74.92
-68.06
-64.42
-65.82
-72.82
-84.91
-101.05
-120.14
-141.36
-164.00
-187.15
-209.52
-229.59
-246.15
-258.75
-267.80
-274.04
-277.93
-279.21
-276.97
-270.20
-258.39
-241.73
-220.95
-196.96
-170.47
-142.00
-112.15
-81.81
-52.24
-24.83
-0.69
19.74
36.91
52.13
67.34
84.59
105.51
130.63
159.27
189.86
220.45
249.38
275.37
297.33
313.96
323.68
325.16
317.97
303.18
283.25
261.21
239.60
219.60
200.90
182.35
162.73
141.34
118.10
93.33
67.49
41.14
14.85
-10.78
-35.24
-58.34
-80.18
-100.95
-120.72
-139.20
-155.78
-169.79
-180.86
-189.08
-195.08
-199.69
-203.66
-207.34
-210.62
-213.09
-214.20
-213.63
-211.43
-208.13
-204.52
-201.31
-198.85
-196.93
-195.01
-192.44
-188.91
-184.36
-178.84
-172.17
-163.88
-153.41
-140.52
-125.80
-110.71
-97.21
-87.13
-81.55
-80.44
-82.81
-87.04
-91.35
-94.18
-94.53
-92.08
-87.24
-80.96
-74.49
-69.01
-65.34
-63.92
-64.75
-67.51
-71.54
-75.96
-79.83
-82.38
-83.32
-82.88
-81.70
-80.37
-79.15
-77.83
-75.99
-73.32
-69.84
-65.86
-61.67
-57.09
-51.41
-43.53
-32.48
-17.94
-0.49
18.59
37.56
54.82
69.32
80.64
88.98
94.80
98.59
100.63
100.96
99.45
96.08
91.00
84.58
77.25
69.19
60.27
50.08
38.28
24.97
10.85
-2.77
-14.48
-23.04
-27.65
-27.93
-23.78
-15.30
-2.91
12.42
29.15
45.29
58.97
68.93
74.88
77.46
77.81
77.13
76.19
75.39
74.82
74.57
74.82
75.80
77.58
79.93
82.39
84.36
85.38
85.23
83.91
81.55
78.21
73.83
68.30
61.56
53.70
44.92
35.55
25.88
16.15
6.50
-2.87
-11.57
-18.96
-24.18
-26.41
-25.10
-20.24
-12.41
-2.69
7.65
17.38
25.55
31.65
35.54
37.48
37.93
37.54
36.95
36.64
36.82
37.39
38.05
38.44
38.37
37.94
37.56
37.82
39.32
42.47
47.33
53.60
60.70
67.96
74.92
81.48
88.01
95.21
103.73
113.70
124.30
133.68
139.39
139.21
131.98
118.20
99.88
79.95
61.26
45.74
34.08
25.81
19.80
14.59
8.59
0.20
-12.00
-28.76
-49.72
-73.13
-96.19
-115.82
-129.70
-136.94
-138.15
-134.91
-129.01
-121.70
-113.55
-104.65
-94.95
-84.57
-73.82
-63.09
-52.68
-42.77
-33.49
-24.99
-17.50
-11.32
-6.66
-3.59
-2.01
-1.77
-2.85
-5.40
-9.84
-16.65
-26.08
-37.80
-50.61
-62.60
-71.48
-75.32
-73.10
-65.03
-52.43
-37.17
-21.14
-5.75
8.16
20.19
30.19
38.14
44.01
47.94
50.21
51.19
51.29
50.84
50.09
49.16
48.10
46.89
45.45
43.72
41.64
39.28
36.78
34.35
32.15
30.18
28.35
26.47
24.40
22.08
19.56
16.88
13.96
10.64
6.65
1.78
-4.05
-10.72
-17.94
-25.27
-32.22
-38.41
-43.55
-47.69
-51.14
-54.46
-58.20
-62.64
-67.55
-72.08
-74.92
-74.65
-70.21
-61.25
-48.22
-32.16
-14.48
3.49
20.69
36.31
49.79
60.65
68.58
73.48
75.60
75.54
74.10
72.11
70.09
68.15
66.09
63.57
60.38
56.57
52.43
48.35
44.60
41.18
37.92
34.59
31.05
27.29
23.44
19.64
15.96
12.42
8.96
5.49
1.88
-1.94
-5.98
-10.18
-14.45
-18.71
-22.95
-27.24
-31.74
-36.63
-42.06
-48.05
-54.44
-60.75
-66.22
-69.80
-70.42
-67.29
-60.18
-49.57
-36.48
-22.20
-7.93
5.34
17.00
26.69
34.22
39.59
42.91
44.44
44.54
43.61
41.99
39.98
37.88
35.89
34.16
32.75
31.59
30.56
29.50
28.36
27.06
25.59
23.83
21.65
18.91
15.60
11.92
8.20
4.79
1.76
-1.08
-4.20
-7.96
-12.49
-17.54
-22.58
-27.13
-30.89
-33.97
-36.66
-39.35
-42.32
-45.65
-49.24
-52.72
-55.54
-56.93
-56.03
-52.10
-44.79
-34.34
-21.54
-7.54
6.42
19.35
30.60
39.83
46.93
51.91
54.79
55.69
54.81
52.57
49.40
45.81
42.15
38.68
35.55
32.80
30.49
28.61
27.18
26.19
25.55
25.12
24.74
24.27
23.58
22.60
21.34
19.80
18.03
16.10
14.05
11.94
9.76
7.48
5.01
2.27
-0.85
-4.50
-8.82
-13.97
-20.14
-27.43
-35.81
-45.00
-54.51
-63.66
-71.68
-77.78
-81.28
-81.71
-78.93
-73.21
-65.18
-55.77
-45.97
-36.57
-28.06
-20.63
-14.25
-8.80
-4.12
0.02
3.99
8.26
13.22
19.03
25.41
31.71
37.14
41.08
43.32
44.08
43.83
43.03
41.89
40.45
38.54
36.04
32.89
29.16
25.02
20.63
16.17
11.71
7.26
2.72
-2.07
-7.23
-12.77
-18.53
-24.19
-29.41
-34.03
-38.06
-41.71
-45.27
-49.04
-53.11
-57.35
-61.39
-64.58
-66.16
-65.31
-61.47
-54.49
-44.74
-33.10
-20.69
-8.56
2.56
12.29
20.57
27.43
32.89
36.98
39.80
41.57
42.58
43.03
42.99
42.27
40.68
38.05
34.50
30.35
26.09
22.07
18.54
15.50
12.81
10.32
7.90
5.54
3.30
1.30
-0.34
-1.63
-2.72
-3.97
-5.72
-8.16
-11.22
-14.50
-17.53
-19.95
-21.66
-22.78
-23.48
-23.86
-23.94
-23.81
-23.72
-24.02
-24.96
-26.44
-27.91
-28.54
-27.52
-24.43
-19.46
-13.12
-6.11
1.05
8.05
14.70
20.77
25.90
29.69
31.75
32.06
30.82
28.56
25.86
23.30
21.22
19.81
19.12
19.03
19.44
20.17
21.06
21.94
22.66
23.13
23.29
23.11
22.53
21.54
20.12
18.30
16.20
14.02
12.01
10.43
9.50
9.41
10.28
12.23
15.27
19.29
23.91
28.51
32.28
34.47
34.57
32.58
29.04
24.91
21.41
19.67
20.50
24.07
30.00
37.41
45.20
52.37
58.23
62.40
64.68
64.95
63.03
58.85
52.49
44.37
35.13
25.40
15.74
6.40
-2.51
-10.92
-18.68
-25.51
-31.08
-35.18
-37.81
-39.18
-39.69
-39.79
-39.77
-39.72
-39.51
-38.85
-37.53
-35.59
-33.43
-31.71
-31.05
-31.75
-33.70
-36.40
-39.15
-41.27
-42.24
-41.75
-39.77
-36.53
-32.46
-28.14
-23.97
-19.93
-15.48
-9.65
-1.48
9.58
23.32
38.78
54.53
69.14
81.62
91.48
98.73
103.54
105.98
105.91
103.03
97.02
87.82
75.73
61.40
45.85
30.27
15.85
3.53
-6.23
-13.49
-18.78
-22.79
-26.16
-29.28
-32.37
-35.46
-38.61
-41.84
-45.21
-48.72
-52.42
-56.42
-60.97
-66.44
-73.15
-81.24
-90.42
-99.85
-108.16
-113.70
-114.95
-111.09
-102.40
-90.36
-77.15
-64.94
-55.10
-47.73
-41.81
-35.78
-28.17
-18.15
-5.64
8.91
24.71
40.86
56.27
69.67
79.64
84.90
84.77
79.61
71.07
61.80
54.88
52.77
56.61
65.82
78.36
91.55
102.85
110.59
114.10
113.62
109.79
103.33
94.84
84.69
73.04
59.81
44.70
27.36
7.54
-14.64
-38.74
-63.97
-89.61
-115.16
-140.50
-165.71
-190.67
-214.86
-237.06
-255.51
-268.08
-272.84
-268.44
-254.64
-232.48
-204.17
-172.72
-141.17
-112.00
-86.51
-64.93
-46.59
-30.57
-16.18
-3.32
7.55
15.67
20.40
21.61
19.72
15.57
9.99
3.40
-4.22
-13.20
-23.71
-35.36
-47.04
-57.31
-64.87
-69.13
-70.35
-69.42
-67.45
-65.40
-63.52
-61.34
-57.98
-52.64
-45.13
-35.88
-25.94
-16.47
-8.58
-2.64
1.76
5.41
9.02
12.87
16.88
20.51
22.89
22.45
17.83
8.30
-5.79
-22.72
-39.39
-52.10
-57.93
-56.09
-48.85
-39.78
-31.93
-26.46
-22.60
-18.61
-13.26
-7.07
1.72
11.10
17.39
17.72
11.97
2.19
-9.86
-22.66
-36.06
-50.42
-66.33
-83.26
-99.62
-113.63
-124.16
-131.10
-135.13
-137.50
-139.38
-142.05
-145.83
-150.15
-153.86
-155.84
-155.41
-152.37
-147.14
-140.50
-133.62
-127.26
-121.52
-115.82
-109.24
-100.88
-90.19
-77.33
-63.07
-48.57
-34.61
-21.09
-6.79
10.25
32.27
61.25
98.29
143.24
194.17
247.14
296.39
335.08
356.86
357.65
337.06
298.56
248.36
193.37
139.29
89.57
45.60
7.70
-23.89
-48.62
-65.79
-75.12
-77.14
-73.27
-65.37
-55.16
-43.70
-30.99
-16.18
1.83
23.65
48.47
73.99
96.95
114.39
124.98
129.56
130.80
131.81
134.75
139.95
146.06
151.07
153.45
152.98
150.55
147.58
145.04
143.03
140.90
137.81
133.37
127.89
122.17
116.93
112.36
107.95
102.73
95.84
86.92
76.36
65.07
54.13
44.36
36.07
29.10
22.99
17.20
11.36
5.30
-0.92
-7.16
-13.31
-19.35
-25.23
-30.77
-35.43
-38.38
-38.62
-35.41
-28.51
-18.34
-5.90
7.56
20.88
33.25
44.21
53.60
61.34
67.38
71.62
74.06
74.82
74.19
72.57
70.39
67.92
65.35
62.68
59.90
57.02
54.05
51.08
48.16
45.29
42.40
39.40
36.17
32.60
28.61
24.15
19.22
13.88
8.27
2.59
-2.91
-8.07
-12.80
-17.14
-21.30
-25.57
-30.21
-35.40
-41.15
-47.23
-53.18
-58.37
-62.03
-63.45
-62.12
-57.86
-50.90
-41.74
-31.09
-19.64
-8.03
3.28
13.88
23.45
31.72
38.47
43.65
47.29
49.56
50.69
50.95
50.58
49.75
48.57
47.14
45.57
43.96
42.40
40.97
39.73
38.71
37.92
37.30
36.72
36.06
35.14
33.90
32.40
30.73
29.00
27.21
25.27
23.05
20.59
18.05
15.75
13.95
12.72
11.92
11.20
10.22
8.77
6.80
4.48
2.11
0.25
-0.39
1.02
5.18
12.39
22.28
33.89
45.88
56.94
66.13
72.92
77.11
78.56
77.05
72.35
64.35
53.28
39.72
24.52
8.60
-7.25
-22.40
-36.44
-49.13
-60.35
-70.05
-78.25
-84.90
-89.92
-93.21
-94.73
-94.60
-93.12
-90.69
-87.64
-84.13
-80.09
-75.40
-69.98
-64.03
-57.99
-52.37
-47.55
-43.68
-40.60
-38.01
-35.64
-33.35
-31.19
-29.32
-27.94
-27.22
-27.25
-28.02
-29.27
-30.53
-31.10
-30.20
-27.23
-21.98
-14.71
-6.11
3.01
11.86
19.93
26.94
32.78
37.35
40.53
42.24
42.49
41.49
39.61
37.29
34.97
32.95
31.34
30.11
29.11
28.18
27.18
26.06
24.85
23.64
22.51
21.48
20.47
19.35
17.99
16.34
14.45
12.48
10.55
8.70
6.88
4.92
2.67
0.11
-2.65
-5.39
-7.86
-9.96
-11.80
-13.62
-15.75
-18.38
-21.55
-25.04
-28.48
-31.38
-33.21
-33.49
-31.89
-28.30
-22.87
-16.07
-8.52
-0.87
6.34
12.78
18.31
22.84
26.27
28.49
29.47
29.33
28.37
26.97
25.48
24.11
22.97
22.02
21.22
20.54
19.92
19.27
18.44
17.30
15.77
13.88
11.80
9.75
7.91
6.39
5.22
4.33
3.66
3.13
2.68
2.25
1.78
1.15
0.28
-0.83
-2.16
-3.58
-4.98
-6.31
-7.60
-8.97
-10.56
-12.56
-15.01
-17.87
-20.89
-23.64
-25.54
-26.00
-24.53
-20.91
-15.29
-8.12
-0.11
7.94
15.24
21.12
25.10
26.92
26.63
24.54
21.22
17.28
13.33
9.81
6.93
4.74
3.10
1.79
0.56
-0.79
-2.36
-4.18
-6.13
-8.12
-10.04
-11.80
-13.36
-14.62
-15.48
-15.92
-16.04
-16.09
-16.38
-17.13
-18.34
-19.73
-20.88
-21.34
-20.88
-19.53
-17.57
-15.45
-13.59
-12.27
-11.62
-11.60
-12.06
-12.74
-13.31
-13.39
-12.56
-10.56
-7.30
-2.99
1.96
6.98
11.57
15.33
18.05
19.66
20.23
19.88
18.81
17.25
15.40
13.41
11.35
9.26
7.21
5.32
3.78
2.72
2.10
1.70
1.17
0.20
-1.35
-3.37
-5.51
-7.37
-8.65
-9.23
-9.22
-8.84
-8.39
-8.06
-8.00
-8.18
-8.45
-8.55
-8.15
-6.96
-4.83
-1.87
1.56
4.95
7.84
9.99
11.52
12.88
14.64
17.27
20.82
24.97
29.12
32.69
35.34
37.15
38.54
40.09
42.33
45.57
49.74
54.38
58.69
61.66
62.38
60.23
55.11
47.49
38.25
28.48
19.21
11.27
5.15
1.03
-1.25
-2.20
-2.64
-3.52
-5.73
-9.76
-15.49
-22.24
-28.96
-34.61
-38.63
-41.12
-42.81
-44.85
-48.27
-53.63
-60.72
-68.59
-75.67
-80.25
-80.96
-77.25
-69.61
-59.47
-48.68
-38.86
-30.83
-24.45
-18.84
-12.97
-6.13
1.75
10.14
18.16
24.85
29.38
31.20
29.99
25.80
19.09
10.71
1.82
-6.28
-12.44
-15.90
-16.50
-14.69
-11.45
-7.89
-4.99
-3.28
-2.78
-3.11
-3.76
-4.33
-4.65
-4.79
-4.98
-5.47
-6.43
-7.82
-9.31
-10.32
-10.16
-8.24
-4.38
1.06
7.30
13.38
18.46
22.04
24.03
24.66
24.41
23.91
23.88
24.98
27.62
31.72
36.66
41.36
44.65
45.69
44.21
40.61
35.72
30.47
25.51
21.02
16.68
11.94
6.30
-0.43
-7.97
-15.69
-22.87
-28.98
-33.86
-37.77
-41.24
-44.88
-49.18
-54.40
-60.36
-66.28
-70.76
-72.15
-69.19
-61.76
-51.26
-40.30
-31.70
-27.37
-27.44
-30.33
-33.60
-34.94
-33.09
-27.89
-19.94
-10.06
1.02
12.65
24.06
34.29
42.33
47.43
49.36
48.47
45.63
41.84
38.04
34.82
32.44
30.85
29.79
28.93
27.97
26.76
25.36
24.01
23.04
22.63
22.66
22.56
21.51
18.65
13.45
5.99
-2.98
-12.27
-20.60
-26.93
-30.69
-31.86
-30.84
-28.33
-25.23
-22.48
-20.99
-21.43
-24.09
-28.72
-34.58
-40.55
-45.45
-48.36
-48.87
-47.12
-43.68
-39.32
-34.76
-30.49
-26.79
-23.75
-21.43
-19.78
-18.58
-17.35
-15.49
-12.49
-8.32
-3.56
0.71
3.37
3.71
1.73
-2.00
-6.55
-11.04
-14.76
-17.26
-18.17
-17.23
-14.49
-10.36
-5.73
-1.69
0.84
1.43
0.25
-2.04
-4.50
-6.28
-6.70
-5.50
-2.74
1.26
6.12
11.49
17.22
23.26
29.60
36.23
43.03
49.92
56.89
64.08
71.69
79.79
88.26
96.63
104.16
109.90
112.83
112.11
107.22
98.29
86.15
72.16
57.86
44.44
32.39
21.48
10.98
0.14
-11.45
-23.67
-36.00
-47.71
-58.14
-66.74
-73.16
-77.25
-79.02
-78.73
-76.88
-74.19
-71.43
-69.35
-68.42
-68.80
-70.26
-72.28
-74.20
-75.38
-75.41
-74.12
-71.67
-68.40
-64.70
-60.82
-56.77
-52.25
-46.74
-39.62
-30.38
-18.81
-5.15
9.88
25.09
39.00
50.12
57.25
59.81
57.97
52.61
45.13
37.13
29.99
24.72
21.76
20.99
21.86
23.63
25.59
27.30
28.68
29.87
31.14
32.60
34.15
35.49
36.37
36.61
36.24
35.33
33.87
31.75
28.74
24.77
20.09
15.32
11.28
8.65
7.70
8.16
9.37
10.52
11.02
10.62
9.35
7.29
4.34
0.16
-5.57
-12.96
-21.61
-30.61
-38.82
-45.20
-49.19
-50.81
-50.61
-49.37
-47.82
-46.43
-45.29
-44.24
-43.01
-41.36
-39.26
-36.83
-34.32
-31.90
-29.60
-27.31
-24.83
-22.04
-18.90
-15.38
-11.45
-7.01
-1.94
3.68
9.54
15.10
19.81
23.29
25.59
27.08
28.35
29.88
31.89
34.29
36.70
38.66
39.76
39.80
38.85
37.29
35.66
34.50
34.13
34.50
35.29
36.00
36.21
35.79
34.91
33.90
33.15
32.78
32.67
32.43
31.43
29.06
24.79
18.37
9.99
0.28
-9.71
-18.76
-25.78
-30.17
-32.01
-32.13
-31.86
-32.64
-35.58
-41.11
-48.81
-57.55
-65.89
-72.39
-76.02
-76.29
-73.32
-67.68
-60.29
-52.22
-44.47
-37.83
-32.65
-28.84
-25.94
-23.27
-20.28
-16.67
-12.55
-8.28
-4.32
-1.03
1.54
3.65
5.87
8.89
13.35
19.53
27.16
35.31
42.67
47.88
50.00
48.81
44.83
39.07
32.62
26.35
20.70
15.82
11.64
8.07
5.10
2.76
1.20
0.63
1.30
3.40
6.90
11.50
16.69
21.83
26.43
30.26
33.28
35.58
37.17
37.90
37.45
35.46
31.73
26.35
19.74
12.60
5.80
0.17
-3.63
-5.34
-5.17
-3.82
-2.32
-1.80
-3.24
-7.20
-13.62
-21.94
-31.20
-40.33
-48.35
-54.63
-58.97
-61.57
-62.98
-63.82
-64.62
-65.49
-66.15
-66.02
-64.43
-60.94
-55.50
-48.45
-40.44
-32.25
-24.71
-18.41
-13.67
-10.32
-7.70
-4.82
-0.74
5.04
12.37
20.44
28.14
34.44
38.73
40.85
41.00
39.56
36.90
33.44
29.58
25.72
22.15
19.06
16.41
14.03
11.78
9.58
7.51
5.78
4.67
4.34
4.80
5.83
7.01
7.92
8.26
8.05
7.61
7.49
8.27
10.27
13.48
17.47
21.52
24.79
26.58
26.46
24.34
20.52
15.67
10.72
6.75
4.82
5.72
9.67
16.22
24.26
32.34
39.05
43.36
44.89
43.86
40.88
36.77
32.30
28.06
24.29
20.87
17.27
12.72
6.46
-1.93
-12.21
-23.45
-34.27
-43.29
-49.57
-52.92
-53.85
-53.33
-52.36
-51.59
-51.22
-51.13
-51.10
-50.95
-50.64
-50.09
-49.14
-47.47
-44.75
-40.81
-35.86
-30.42
-25.19
-20.76
-17.44
-15.21
-13.83
-13.11
-12.97
-13.51
-14.80
-16.71
-18.81
-20.44
-20.98
-20.05
-17.72
-14.41
-10.75
-7.30
-4.45
-2.38
-1.07
-0.43
-0.26
-0.35
-0.46
-0.45
-0.32
-0.15
-0.04
0.02
0.19
0.70
1.79
3.53
5.83
8.54
11.55
14.81
18.37
22.20
26.21
30.22
33.93
37.03
39.24
40.35
40.28
39.23
37.65
36.13
35.19
34.99
35.21
35.13
33.85
30.72
25.60
18.90
11.44
4.20
-2.02
-6.67
-9.58
-10.82
-10.77
-9.92
-8.90
-8.31
-8.61
-10.03
-12.47
-15.63
-19.13
-22.61
-25.83
-28.63
-30.83
-32.19
-32.45
-31.36
-28.90
-25.24
-20.76
-15.90
-11.07
-6.58
-2.68
0.43
2.61
3.74
3.86
3.15
1.90
0.44
-1.00
-2.27
-3.31
-4.02
-4.25
-3.87
-2.82
-1.22
0.66
2.49
4.03
5.21
6.13
6.93
7.73
8.46
8.97
9.06
8.60
7.63
6.23
4.54
2.72
0.97
-0.40
-0.95
-0.18
2.27
6.47
12.08
18.43
24.70
30.25
34.75
38.21
40.90
43.06
44.72
45.61
45.18
42.85
38.27
31.58
23.41
14.89
7.17
1.22
-2.57
-4.42
-5.02
-5.34
-6.26
-8.38
-11.83
-16.28
-21.01
-25.20
-28.17
-29.63
-29.75
-29.04
-28.11
-27.44
-27.15
-27.11
-27.04
-26.78
-26.35
-25.92
-25.73
-25.91
-26.45
-27.16
-27.72
-27.83
-27.24
-25.85
-23.61
-20.59
-16.85
-12.49
-7.63
-2.48
2.71
7.69
12.17
15.94
18.84
20.81
21.87
22.13
21.78
21.09
20.31
19.58
18.92
18.26
17.50
16.62
15.61
14.51
13.31
11.93
10.33
8.54
6.74
5.20
4.23
3.98
4.38
5.14
5.83
6.06
5.61
4.50
2.93
1.14
-0.65
-2.46
-4.41
-6.69
-9.35
-12.21
-14.84
-16.72
-17.48
-17.03
-15.60
-13.57
-11.36
-9.23
-7.28
-5.60
-4.31
-3.62
-3.73
-4.72
-6.41
-8.41
-10.29
-11.74
-12.64
-13.11
-13.32
-13.38
-13.31
-13.05
-12.53
-11.84
-11.13
-10.59
-10.36
-10.46
-10.82
-11.38
-12.14
-13.14
-14.43
-15.93
-17.43
-18.58
-19.05
-18.65
-17.41
-15.51
-13.29
-11.02
-8.82
-6.74
-4.69
-2.54
-0.19
2.39
5.22
8.28
11.56
15.01
18.59
22.21
25.81
29.31
32.69
35.93
39.01
41.93
44.62
47.01
49.04
50.66
51.83
52.47
52.40
51.33
48.82
44.39
37.64
28.53
17.51
5.57
-5.92
-15.58
-22.40
-26.01
-26.73
-25.41
-23.13
-20.91
-19.52
-19.43
-20.79
-23.45
-26.98
-30.68
-33.75
-35.47
-35.41
-33.56
-30.31
-26.33
-22.36
-18.93
-16.35
-14.58
-13.38
-12.44
-11.51
-10.50
-9.46
-8.53
-7.85
-7.48
-7.39
-7.47
-7.48
-7.23
-6.52
-5.30
-3.67
-1.89
-0.30
0.80
1.26
1.13
0.58
-0.19
-1.05
-2.02
-3.18
-4.58
-6.22
-8.02
-9.82
-11.40
-12.51
-12.86
-12.18
-10.27
-7.06
-2.66
2.64
8.50
14.51
20.36
25.77
30.54
34.54
37.73
40.20
42.12
43.66
44.97
45.98
46.40
45.74
43.45
39.08
32.51
24.05
14.45
4.76
-3.92
-10.74
-15.32
-17.79
-18.63
-18.46
-17.91
-17.42
-17.28
-17.66
-18.65
-20.25
-22.30
-24.56
-26.70
-28.42
-29.57
-30.13
-30.19
-29.87
-29.17
-27.99
-26.20
-23.68
-20.51
-16.91
-13.22
-9.78
-6.88
-4.64
-3.09
-2.18
-1.78
-1.71
-1.68
-1.43
-0.78
0.29
1.61
2.93
4.06
4.94
5.64
6.30
7.00
7.67
8.17
8.32
8.04
7.37
6.50
5.71
5.32
5.61
6.73
8.64
11.13
13.88
16.56
18.97
21.04
22.82
24.39
25.85
27.28
28.82
30.62
32.88
35.74
39.22
43.14
47.13
50.66
53.15
54.06
52.90
49.36
43.28
34.81
24.39
12.88
1.41
-8.87
-16.98
-22.45
-25.37
-26.28
-25.99
-25.34
-24.97
-25.27
-26.38
-28.24
-30.65
-33.32
-35.92
-38.15
-39.81
-40.77
-41.03
-40.68
-39.86
-38.82
-37.81
-37.11
-36.91
-37.25
-38.02
-38.96
-39.71
-39.95
-39.48
-38.23
-36.26
-33.70
-30.62
-27.12
-23.24
-19.07
-14.75
-10.50
-6.55
-3.08
-0.15
2.35
4.61
6.82
9.01
11.12
12.91
14.17
14.79
14.78
14.34
13.74
13.29
13.23
13.77
14.98
16.84
19.16
21.65
23.91
25.60
26.58
26.88
26.79
26.68
26.86
27.46
28.39
29.45
30.40
31.09
31.46
31.55
31.37
30.86
29.91
28.36
26.17
23.35
19.95
16.06
11.77
7.23
2.73
-1.30
-4.38
-6.14
-6.55
-5.96
-5.01
-4.37
-4.54
-5.70
-7.75
-10.37
-13.23
-16.02
-18.50
-20.47
-21.79
-22.44
-22.50
-22.15
-21.65
-21.20
-20.95
-20.96
-21.16
-21.42
-21.56
-21.40
-20.89
-20.11
-19.36
-19.00
-19.28
-20.21
-21.44
-22.41
-22.53
-21.49
-19.29
-16.23
-12.72
-9.12
-5.65
-2.40
0.55
3.09
5.08
6.42
7.10
7.21
6.97
6.69
6.71
7.38
9.04
11.94
16.20
21.71
28.16
35.07
41.85
47.96
52.97
56.69
59.16
60.64
61.41
61.72
61.65
61.11
59.99
58.20
55.76
52.79
49.51
46.09
42.64
39.18
35.59
31.56
26.60
20.18
11.92
2.01
-8.79
-19.21
-27.94
-34.10
-37.56
-38.93
-39.18
-39.20
-39.45
-39.90
-40.18
-39.91
-38.89
-37.09
-34.67
-31.85
-28.86
-25.96
-23.42
-21.44
-20.11
-19.35
-18.92
-18.61
-18.36
-18.42
-19.31
-21.64
-25.74
-31.48
-38.11
-44.47
-49.40
-52.03
-52.09
-49.85
-45.93
-41.06
-35.88
-30.93
-26.65
-23.42
-21.52
-20.99
-21.57
-22.70
-23.66
-23.76
-22.56
-19.96
-16.24
-11.97
-7.81
-4.34
-1.83
-0.15
1.11
2.52
4.55
7.43
11.19
15.63
20.50
25.53
30.39
34.79
38.45
41.17
42.88
43.70
43.89
43.74
43.52
43.36
43.27
43.22
43.13
42.90
42.43
41.62
40.37
38.58
36.21
33.28
29.84
25.90
21.25
15.52
8.28
-0.65
-10.95
-21.68
-31.46
-38.88
-42.95
-43.40
-40.69
-35.81
-29.83
-23.72
-18.15
-13.51
-9.98
-7.53
-5.98
-5.02
-4.29
-3.52
-2.62
-1.67
-0.88
-0.52
-0.71
-1.46
-2.54
-3.68
-4.58
-5.11
-5.28
-5.25
-5.26
-5.53
-6.16
-7.15
-8.32
-9.44
-10.26
-10.66
-10.63
-10.38
-10.14
-10.18
-10.68
-11.73
-13.29
-15.28
-17.55
-19.92
-22.12
-23.86
-24.84
-24.91
-24.06
-22.41
-20.12
-17.37
-14.27
-10.89
-7.35
-3.83
-0.62
2.03
3.98
5.24
6.00
6.53
7.06
7.71
8.43
9.15
9.83
10.57
11.51
12.83
14.57
16.55
18.38
19.62
19.87
19.00
17.08
14.36
11.17
7.78
4.36
1.06
-2.01
-4.66
-6.77
-8.28
-9.31
-10.18
-11.34
-13.25
-16.13
-19.88
-23.96
-27.50
-29.58
-29.49
-27.01
-22.45
-16.56
-10.25
-4.21
1.16
5.86
10.09
14.07
17.93
21.59
24.95
27.91
30.57
33.19
36.12
39.66
43.96
48.86
54.02
59.05
63.67
67.85
71.88
76.24
81.55
88.26
96.59
106.40
117.39
129.22
141.74
154.99
169.04
183.73
198.51
212.42
224.26
232.78
236.79
235.07
226.59
210.86
188.68
162.66
137.03
116.65
105.34
104.48
112.51
125.76
139.82
151.12
157.71
159.18
156.02
149.49
141.57
134.62
130.69
130.38
132.01
131.92
125.92
110.94
86.77
56.27
24.05
-5.56
-30.17
-49.93
-66.70
-82.79
-100.45
-120.56
-142.36
-163.86
-182.47
-195.91
-202.79
-202.83
-196.70
-187.45
-178.01
-170.09
-163.42
-156.12
-146.12
-132.45
-116.01
-99.54
-90.43
-95.25
-117.06
-153.90
-199.81
-247.64
-291.78
-329.09
-358.72
-387.20
-420.87
-463.30
-513.36
-566.13
-616.01
-659.06
-693.40
-718.47
-741.44
-768.02
-800.11
-835.13
-868.80
-899.27
-928.43
-959.74
-947.88
-860.17
-685.32
-444.13
-178.52
71.15
280.54
442.36
560.78
645.19
698.00
721.09
717.70
694.67
661.52
627.05
597.25
575.02
561.07
549.16
533.35
510.34
480.88
448.88
417.67
388.97
362.87
338.73
312.40
280.60
242.19
198.84
155.18
114.67
79.04
48.25
21.36
-4.18
-29.29
-52.17
-68.53
-73.46
-64.61
-43.52
-15.47
12.01
30.81
35.29
23.90
-0.48
-31.45
-61.65
-84.62
-96.58
-97.27
-89.41
-77.19
-64.42
-54.21
-45.93
-38.61
-31.52
-24.49
-17.58
-10.79
-3.62
4.63
14.34
25.27
36.01
44.78
50.13
51.56
49.65
45.88
41.96
39.24
38.35
38.82
39.73
40.14
39.54
37.81
35.24
32.28
29.37
26.86
24.81
23.19
21.87
20.59
18.99
16.70
13.46
9.28
4.46
-0.58
-5.35
-9.76
-13.56
-16.57
-18.70
-20.05
-20.81
-21.33
-22.09
-23.42
-25.51
-28.18
-31.05
-33.66
-35.68
-36.98
-37.62
-37.78
-37.58
-37.04
-36.17
-35.03
-33.82
-32.81
-32.14
-31.79
-31.52
-31.07
-30.22
-28.89
-27.12
-25.01
-22.61
-19.90
-16.78
-13.18
-9.05
-4.51
0.24
4.90
9.16
12.80
15.77
18.17
20.21
22.04
23.75
25.30
26.64
27.77
28.70
29.48
30.07
30.37
30.26
29.62
28.47
26.87
25.00
22.99
21.00
19.09
17.27
15.52
13.77
11.99
10.23
8.59
7.19
6.10
5.25
4.48
3.57
2.41
1.00
-0.52
-1.99
-3.26
-4.31
-5.21
-6.15
-7.32
-8.89
-10.97
-13.50
-16.31
-19.04
-21.30
-22.71
-23.00
-22.01
-19.77
-16.44
-12.28
-7.71
-3.24
0.44
2.51
2.20
-1.07
-7.46
-16.75
-28.38
-41.69
-55.99
-70.63
-84.87
-97.78
-108.25
-115.26
-118.30
-117.58
-114.02
-108.92
-103.47
-98.32
-93.38
-87.71
-79.74
-67.33
-47.95
-18.95
21.81
75.14
139.33
209.58
278.33
336.68
376.56
392.83
384.39
354.10
307.67
252.15
194.87
142.59
100.98
74.03
63.46
68.31
85.17
109.25
135.81
161.43
184.50
204.69
222.44
238.14
251.67
262.21
268.27
268.11
260.38
244.68
221.44
192.36
160.03
127.30
96.59
69.14
44.90
22.83
1.52
-21.08
-46.62
-75.90
-108.58
-143.30
-178.23
-211.43
-241.13
-265.90
-285.81
-301.53
-314.01
-323.90
-331.58
-337.42
-341.81
-345.18
-341.86
-327.22
-299.30
-260.47
-215.98
-171.00
-128.88
-90.99
-57.64
-28.74
-4.84
13.68
27.01
36.01
41.93
45.79
48.12
49.06
48.70
46.84
43.74
40.35
38.07
38.09
40.76
45.50
50.94
55.74
58.75
59.67
59.00
57.47
55.75
53.09
48.08
39.12
24.99
4.87
-21.45
-53.15
-87.07
-118.67
-142.13
-151.93
-145.32
-123.99
-94.14
-64.20
-41.37
-28.99
-26.14
-28.97
-33.27
-36.66
-38.82
-40.53
-42.19
-43.16
-41.58
-36.37
-27.85
-17.81
-8.76
-2.88
-1.12
-2.88
-6.29
-9.13
-9.84
-8.06
-4.76
-1.73
-0.45
-1.78
-5.38
-9.79
-13.08
-13.73
-11.30
-6.65
-1.52
2.78
5.24
5.91
5.84
6.66
9.91
16.83
28.15
43.90
63.37
83.45
99.04
104.44
95.53
71.97
37.93
1.08
-33.70
-60.06
-74.82
-78.56
-74.29
-65.25
-53.33
-38.82
-21.28
-0.52
23.57
50.27
78.80
108.54
138.66
167.65
193.02
211.72
221.21
221.02
212.54
198.96
184.25
171.65
162.56
155.97
149.01
138.23
121.07
96.35
64.49
27.36
-12.12
-50.31
-83.10
-106.43
-117.03
-113.26
-96.05
-68.56
-35.05
0.50
35.12
66.82
93.90
114.42
126.56
129.32
123.42
111.55
97.39
84.20
73.71
66.08
60.65
57.01
55.15
55.05
55.88
55.57
51.39
41.17
24.58
3.63
-17.92
-36.45
-49.67
-57.40
-61.40
-64.72
-70.74
-82.17
-100.04
-122.98
-147.81
-169.69
-183.61
-186.32
-178.35
-165.21
-156.17
-160.85
-185.07
-229.03
-286.19
-345.22
-393.50
-421.04
-423.30
-401.32
-359.31
-302.24
-236.21
-168.01
-105.52
-57.01
-29.52
-26.95
-48.23
-86.79
-122.66
-136.78
-118.36
-71.16
-9.91
50.24
100.81
140.72
172.83
200.09
221.78
234.39
234.56
220.69
194.17
159.24
122.00
89.26
67.16
59.76
66.17
80.10
92.77
97.36
91.70
78.39
62.71
49.60
40.11
31.52
20.07
3.69
-15.96
-33.98
-44.48
-43.73
-31.13
-11.34
6.56
12.71
-0.33
-34.21
-83.87
-138.78
-186.11
-214.60
-218.02
-196.35
-154.35
-100.56
-45.11
1.95
32.52
42.30
32.26
8.96
-19.80
-42.74
-51.06
-42.35
-22.02
-0.94
9.58
2.63
-21.56
-56.31
-91.60
-118.90
-134.11
-137.77
-133.43
-124.71
-113.94
-101.45
-86.24
-66.99
-43.56
-16.84
11.99
41.93
72.32
100.80
122.81
132.95
128.16
110.13
85.76
64.72
55.20
61.74
82.41
111.00
140.84
168.29
193.51
218.88
246.69
277.43
311.55
346.90
379.33
403.77
416.18
415.75
405.67
392.05
381.44
380.10
388.16
399.42
404.45
395.25
369.00
328.51
280.13
214.59
131.60
37.93
-54.55
-134.14
-193.74
-231.13
-248.05
-248.98
-240.21
-225.62
-208.94
-193.00
-179.12
-167.27
-156.13
-144.49
-132.08
-119.81
-107.16
-94.24
-81.68
-69.76
-58.38
-46.77
-34.13
-20.24
-5.65
9.81
25.76
41.47
56.32
69.69
81.49
91.89
100.80
107.81
112.71
114.83
112.91
108.24
101.40
93.20
84.37
75.35
66.17
56.72
46.74
35.96
24.53
12.48
0.20
-11.94
-23.87
-35.99
-49.03
-63.74
-80.49
-98.96
-118.61
-138.52
-157.87
-176.24
-193.81
-211.23
-229.50
-249.83
-273.32
-300.64
-331.02
-361.89
-388.99
-407.38
-413.09
-404.51
-383.00
-352.31
-317.17
-281.70
-248.47
-218.40
-191.42
-167.13
-145.27
-125.59
-107.72
-90.96
-74.39
-57.22
-39.12
-20.49
-2.41
13.64
26.29
34.84
39.56
41.63
42.70
44.26
47.17
51.35
56.03
60.16
62.76
63.33
61.85
58.79
54.99
51.48
49.32
49.22
51.29
54.94
59.00
62.19
63.55
62.78
60.16
56.30
51.81
47.03
41.99
36.51
30.44
23.72
16.41
8.65
0.59
-7.46
-15.04
-21.52
-26.04
-27.82
-26.28
-21.40
-13.79
-4.56
5.08
14.24
22.57
30.16
37.17
43.41
48.18
50.53
49.70
45.46
38.34
29.34
19.72
10.58
2.80
-2.98
-6.36
-7.22
-5.78
-2.56
1.61
5.86
9.45
11.95
13.26
13.62
13.53
13.49
13.93
14.92
16.13
16.96
16.82
15.42
13.02
10.28
7.96
6.50
5.85
5.60
5.26
4.70
4.29
4.75
6.79
10.74
16.45
23.47
31.44
40.38
50.57
62.21
75.05
88.21
100.37
110.27
117.04
120.34
120.25
116.99
110.76
101.86
90.88
78.78
66.75
55.86
46.71
39.19
32.68
26.29
19.30
11.46
2.96
-5.67
-14.01
-21.96
-29.97
-38.66
-48.42
-59.03
-69.61
-78.96
-86.14
-90.86
-93.58
-95.03
-95.79
-95.89
-94.90
-92.31
-87.89
-81.90
-74.87
-67.30
-59.34
-50.75
-41.13
-30.26
-18.21
-5.41
7.60
20.31
32.29
43.12
52.27
59.15
63.22
64.32
62.79
59.40
55.04
50.33
45.36
39.80
33.29
25.80
17.89
10.54
4.85
1.56
0.94
2.69
6.23
10.83
15.79
20.48
24.31
26.76
27.54
26.71
24.66
22.10
19.82
18.41
18.17
18.94
20.19
21.14
20.96
18.97
14.78
8.47
0.51
-8.21
-16.61
-23.54
-28.11
-29.96
-29.35
-27.02
-23.82
-20.33
-16.61
-12.29
-6.88
-0.22
7.34
15.16
22.66
29.67
36.44
43.34
50.41
57.22
62.84
66.37
67.32
65.91
62.96
59.44
56.06
53.13
50.54
48.00
45.41
42.86
40.63
38.96
37.84
36.97
35.86
33.99
31.09
27.10
22.21
16.74
11.09
5.65
0.68
-3.75
-7.89
-12.26
-17.45
-23.87
-31.45
-39.50
-46.96
-52.68
-55.85
-56.26
-54.23
-50.52
-46.01
-41.58
-37.88
-35.33
-33.90
-33.18
-32.44
-30.96
-28.34
-24.73
-20.80
-17.58
-16.10
-17.01
-20.39
-25.73
-32.06
-38.22
-43.23
-46.48
-47.84
-47.56
-46.08
-43.82
-41.15
-38.30
-35.50
-33.03
-31.16
-30.03
-29.58
-29.58
-29.72
-29.82
-29.80
-29.75
-29.79
-30.06
-30.68
-31.83
-33.78
-36.83
-41.16
-46.66
-52.85
-58.94
-63.96
-67.01
-67.43
-64.97
-59.81
-52.50
-43.88
-34.85
-26.20
-18.36
-11.36
-4.89
1.54
8.32
15.64
23.41
31.43
39.45
47.41
55.45
63.89
73.05
83.00
93.42
103.52
112.27
118.62
121.87
121.83
118.74
113.23
106.08
98.09
89.96
82.17
74.91
68.03
61.18
53.90
45.88
37.08
27.72
18.19
8.91
0.23
-7.61
-14.38
-19.91
-24.05
-26.82
-28.44
-29.39
-30.14
-30.90
-31.39
-30.79
-28.04
-22.33
-13.61
-2.77
8.64
18.84
26.41
30.57
31.23
28.89
24.43
18.96
13.64
9.36
6.39
4.16
1.38
-3.42
-11.07
-21.30
-32.75
-43.67
-52.82
-60.03
-66.13
-72.21
-78.82
-85.38
-90.15
-90.95
-85.86
-74.06
-56.20
-34.35
-11.56
8.95
24.55
33.85
36.88
34.86
29.65
23.10
16.84
12.17
10.19
11.77
17.33
26.47
37.85
49.44
59.01
64.87
66.27
63.46
57.37
49.18
39.79
29.87
19.89
10.39
2.18
-3.88
-7.05
-7.05
-4.10
1.25
8.54
17.68
28.99
42.90
59.46
77.97
96.84
113.81
126.38
132.39
130.55
120.77
104.33
83.64
61.85
42.12
26.92
17.47
13.48
13.18
13.71
11.68
3.92
-11.73
-35.82
-66.98
-102.17
-137.45
-168.96
-193.82
-210.48
-218.73
-219.19
-212.89
-200.94
-184.54
-165.03
-144.00
-123.17
-104.06
-87.74
-74.59
-64.22
-55.62
-47.37
-37.93
-25.97
-10.72
7.80
28.66
50.17
70.35
87.51
100.77
110.17
116.51
120.74
123.55
125.13
125.31
123.84
120.64
115.85
109.67
102.24
93.54
83.47
71.92
58.87
44.40
28.70
12.14
-4.69
-21.05
-36.18
-49.44
-60.49
-69.27
-75.87
-80.43
-83.10
-84.16
-84.17
-83.96
-84.51
-86.65
-90.81
-96.86
-104.21
-111.98
-119.16
-124.94
-128.75
-130.48
-130.44
-129.31
-127.97
-127.19
-127.37
-128.23
-128.75
-127.32
-122.07
-111.43
-94.67
-72.25
-45.82
-17.90
8.78
31.84
49.69
61.79
68.59
71.52
72.66
74.41
78.83
86.95
98.30
110.88
121.83
128.47
129.32
124.62
116.25
106.94
99.37
95.49
96.13
101.07
109.25
119.18
129.22
137.97
144.49
148.43
149.95
149.49
147.43
143.90
138.78
131.92
123.38
113.55
103.00
92.18
81.13
69.42
56.35
41.27
24.02
5.03
-14.69
-33.80
-50.90
-64.72
-74.37
-79.46
-80.29
-77.82
-73.67
-69.63
-67.16
-66.88
-68.36
-70.27
-70.97
-69.27
-64.82
-58.26
-50.88
-44.00
-38.48
-34.49
-31.55
-28.79
-25.22
-19.93
-12.24
-1.74
11.50
26.86
43.13
58.66
71.73
80.96
85.56
85.46
81.18
73.61
63.79
52.80
41.64
31.22
22.29
15.36
10.61
7.93
6.87
6.76
6.76
6.03
3.85
-0.11
-5.70
-12.24
-18.66
-23.91
-27.20
-28.34
-27.68
-25.84
-23.38
-20.56
-17.30
-13.46
-9.13
-4.77
-1.09
1.25
1.95
1.25
-0.25
-1.89
-3.32
-4.53
-5.78
-7.21
-8.71
-9.90
-10.35
-9.78
-8.30
-6.30
-4.35
-3.03
-2.85
-4.16
-7.14
-11.75
-17.65
-24.19
-30.50
-35.67
-38.96
-40.03
-38.98
-36.26
-32.56
-28.57
-24.84
-21.75
-19.46
-18.01
-17.30
-17.12
-17.12
-16.82
-15.75
-13.56
-10.19
-5.89
-1.13
3.62
8.09
12.29
16.36
20.46
24.53
28.39
31.76
34.45
36.44
37.84
38.78
39.36
39.63
39.69
39.71
39.96
40.69
42.10
44.23
47.07
50.55
54.57
58.94
63.29
67.07
69.52
69.83
67.31
61.53
52.37
40.10
25.37
9.14
-7.42
-23.06
-36.79
-47.94
-56.41
-62.62
-67.35
-71.52
-75.83
-80.68
-86.04
-91.52
-96.55
-100.46
-102.56
-102.30
-99.29
-93.50
-85.32
-75.60
-65.38
-55.72
-47.38
-40.69
-35.59
-31.75
-28.70
-26.01
-23.35
-20.54
-17.61
-14.78
-12.34
-10.54
-9.42
-8.81
-8.38
-7.86
-7.15
-6.37
-5.79
-5.67
-6.12
-7.04
-8.19
-9.27
-10.05
-10.42
-10.41
-10.16
-9.83
-9.60
-9.56
-9.72
-9.97
-10.15
-10.04
-9.37
-7.85
-5.27
-1.53
3.24
8.71
14.41
19.84
24.56
28.33
31.07
32.86
33.87
34.26
34.20
33.81
33.15
32.23
31.07
29.69
28.12
26.36
24.34
21.91
18.86
15.05
10.49
5.42
0.30
-4.35
-8.10
-10.74
-12.29
-13.06
-13.46
-13.94
-14.84
-16.36
-18.58
-21.46
-24.92
-28.83
-32.97
-37.05
-40.70
-43.48
-45.04
-45.13
-43.66
-40.73
-36.62
-31.68
-26.30
-20.82
-15.42
-10.14
-4.95
0.23
5.50
10.83
16.15
21.34
26.25
30.71
34.55
37.60
39.74
40.93
41.21
40.70
39.65
38.44
37.54
37.53
38.94
42.08
46.87
52.84
59.19
65.09
69.89
73.37
75.72
77.34
78.67
79.93
81.04
81.72
81.61
80.36
77.79
73.85
68.61
62.16
54.71
46.54
38.10
29.94
22.68
16.82
12.69
10.31
9.48
9.78
10.73
11.85
12.73
13.02
12.63
11.75
10.87
10.63
11.52
13.55
16.22
18.64
19.82
19.03
15.93
10.42
2.54
-7.66
-19.92
-33.69
-48.03
-61.86
-74.46
-85.76
-96.38
-107.28
-119.24
-132.61
-147.36
-163.29
-180.27
-198.04
-215.88
-232.33
-245.27
-252.63
-253.26
-247.49
-237.13
-224.63
-212.19
-201.03
-191.33
-182.46
-173.45
-163.10
-150.01
-132.50
-108.92
-78.31
-41.08
0.74
43.96
85.08
121.39
151.43
175.13
193.32
207.22
218.00
226.64
233.83
240.06
245.58
250.53
255.09
259.64
264.83
271.48
280.34
291.62
304.81
318.37
329.94
336.63
335.66
325.03
304.09
273.64
235.68
192.73
147.24
101.24
56.30
13.71
-25.51
-60.56
-91.33
-118.60
-144.14
-170.51
-200.79
-237.94
-283.81
-337.92
-396.39
-451.95
-495.40
-518.43
-516.55
-490.85
-447.49
-395.09
-341.50
-291.42
-245.97
-204.15
-164.79
-127.86
-94.39
-65.48
-41.15
-20.12
-0.31
20.13
42.37
66.82
93.50
122.22
152.38
182.44
209.65
230.49
241.77
241.89
231.60
213.79
192.56
172.09
155.68
145.35
141.81
144.60
152.14
161.88
170.60
175.20
173.48
164.79
150.13
131.65
111.96
93.20
76.70
62.86
51.46
42.16
34.88
29.89
27.67
28.58
32.48
38.68
46.08
53.48
59.84
64.55
67.39
68.43
67.84
65.77
62.30
57.51
51.65
45.08
38.25
31.52
24.99
18.56
12.03
5.34
-1.31
-7.55
-12.95
-17.30
-20.60
-23.07
-24.93
-26.32
-27.34
-28.18
-29.22
-30.96
-33.77
-37.77
-42.76
-48.31
-54.01
-59.65
-65.16
-70.48
-75.38
-79.34
-81.68
-81.84
-79.59
-75.16
-69.15
-62.26
-55.14
-48.28
-42.00
-36.55
-32.19
-29.15
-27.49
-27.02
-27.33
-27.80
-27.92
-27.39
-26.22
-24.67
-23.15
-21.98
-21.25
-20.88
-20.67
-20.43
-20.09
-19.75
-19.60
-19.73
-20.20
-20.85
-21.57
-22.30
-23.14
-24.29
-25.88
-27.90
-30.21
-32.62
-35.01
-37.41
-39.95
-42.69
-45.62
-48.56
-51.30
-53.71
-55.87
-57.88
-59.82
-61.54
-62.67
-62.79
-61.54
-58.80
-54.73
-49.68
-44.07
-38.27
-32.53
-27.05
-21.98
-17.52
-13.79
-10.85
-8.60
-6.81
-5.23
-3.69
-2.21
-1.03
-0.52
-0.96
-2.40
-4.58
-6.94
-8.82
-9.71
-9.36
-7.82
-5.32
-2.10
1.72
6.22
11.58
17.91
25.10
32.81
40.49
47.68
54.07
59.65
64.53
68.81
72.43
75.14
76.69
76.99
76.18
74.56
72.44
69.94
67.03
63.71
60.20
57.06
55.10
55.16
57.80
63.09
70.46
78.93
87.28
94.31
99.17
101.55
101.73
100.47
98.74
97.34
96.63
96.41
95.94
94.21
90.25
83.46
73.73
61.40
46.96
30.78
12.86
-7.13
-29.47
-53.91
-79.33
-104.05
-126.13
-144.33
-158.63
-170.41
-182.22
-197.38
-219.34
-250.76
-292.28
-341.20
-391.09
-432.86
-457.37
-458.75
-436.72
-396.67
-347.40
-297.64
-253.10
-215.45
-183.32
-154.17
-125.90
-97.20
-67.11
-34.60
1.26
40.40
81.00
119.50
151.67
173.86
184.39
184.00
175.34
162.09
147.78
135.03
125.31
118.98
115.70
114.76
115.39
116.89
118.66
120.16
120.84
120.22
117.94
113.84
107.93
100.34
91.20
80.69
69.12
56.97
45.02
34.05
24.59
16.70
9.94
3.60
-2.80
-9.22
-14.96
-19.01
-20.43
-18.95
-14.91
-9.16
-2.62
4.09
10.69
16.91
22.19
25.60
26.29
24.29
21.13
19.67
23.08
33.43
50.71
73.03
97.83
123.41
149.58
176.90
205.04
231.41
251.28
259.53
253.10
232.53
201.85
166.73
132.27
101.48
75.21
53.00
34.03
17.52
2.34
-13.46
-32.50
-57.22
-88.58
-125.07
-162.78
-196.46
-221.17
-233.73
-233.49
-222.14
-202.72
-178.51
-152.15
-125.45
-99.78
-76.53
-57.34
-43.75
-36.52
-35.23
-38.18
-43.05
-47.76
-51.19
-53.34
-55.02
-57.16
-60.23
-64.11
-68.09
-71.25
-72.73
-72.02
-69.08
-64.40
-58.94
-53.90
-50.31
-48.76
-49.24
-51.38
-54.66
-58.59
-62.68
-66.35
-68.93
-69.78
-68.49
-65.13
-60.16
-54.22
-47.94
-41.73
-35.89
-30.71
-26.54
-23.70
-22.29
-22.16
-22.85
-23.92
-25.13
-26.48
-28.02
-29.68
-31.06
-31.52
-30.44
-27.53
-23.05
-17.64
-12.05
-6.83
-2.04
2.58
7.53
13.21
19.70
26.83
34.28
41.76
49.10
56.29
63.30
69.99
75.98
80.66
83.29
83.25
80.42
75.26
68.84
62.52
57.39
54.01
52.18
51.28
50.56
49.50
47.92
45.72
42.73
38.61
33.05
26.12
18.49
11.36
6.00
3.25
3.09
4.67
6.66
7.85
7.57
5.93
3.60
1.48
0.24
0.14
1.08
2.70
4.73
7.05
9.78
13.03
16.70
20.39
23.34
24.80
24.31
22.24
19.79
18.75
20.83
26.99
37.06
49.74
63.03
74.79
83.25
87.31
86.80
82.64
76.76
71.85
70.64
74.96
84.88
98.42
112.22
122.96
128.86
130.34
129.57
129.18
130.81
134.38
138.37
140.96
140.99
138.52
134.48
130.03
125.97
122.50
119.08
114.65
107.63
96.23
79.11
56.12
28.80
-0.09
-27.76
-52.72
-75.55
-98.43
-123.78
-152.96
-185.87
-221.48
-258.73
-296.84
-334.70
-370.19
-400.14
-421.35
-432.09
-432.98
-426.39
-414.84
-399.30
-378.77
-351.46
-316.63
-275.72
-232.08
-189.17
-148.73
-109.99
-70.47
-28.11
16.81
61.11
99.79
127.94
142.79
144.49
135.70
120.22
101.44
81.21
59.55
35.18
6.50
-27.40
-66.09
-107.52
-148.09
-183.19
-208.09
-219.03
-214.26
-194.53
-162.71
-123.01
-79.86
-36.93
3.31
39.77
72.47
102.30
130.72
159.19
188.43
217.77
244.94
266.68
280.00
283.52
277.95
265.57
248.89
229.41
206.95
180.12
147.27
107.61
61.92
12.71
-35.93
-78.85
-110.68
-127.02
-125.47
-106.53
-73.54
-32.03
11.34
50.10
79.02
95.03
97.62
89.08
73.76
56.88
42.93
34.53
32.04
34.25
39.40
46.22
54.28
63.64
74.17
85.06
94.84
101.79
104.61
102.86
97.24
89.29
80.93
73.89
69.26
67.30
67.53
69.01
70.58
71.10
69.58
65.34
58.29
49.12
39.28
30.53
24.38
21.33
20.78
21.24
21.02
18.86
14.28
7.41
-1.29
-11.31
-22.20
-33.50
-44.60
-54.81
-63.49
-70.29
-75.20
-78.45
-80.34
-81.10
-80.82
-79.48
-76.98
-73.18
-67.96
-61.33
-53.53
-45.01
-36.48
-28.72
-22.30
-17.34
-13.42
-9.71
-5.39
-0.04
6.14
12.30
17.39
20.61
21.77
21.28
19.92
18.51
17.51
17.09
17.10
17.35
17.64
17.77
17.38
16.06
13.46
9.48
4.54
-0.54
-4.82
-7.66
-9.02
-9.47
-9.85
-10.84
-12.71
-15.18
-17.69
-19.73
-21.11
-21.85
-22.16
-22.16
-21.75
-20.71
-18.74
-15.67
-11.54
-6.64
-1.37
3.95
9.14
14.32
19.60
25.02
30.24
34.64
37.58
38.68
38.04
36.14
33.60
30.88
28.19
25.51
22.86
20.46
18.62
17.63
17.46
17.81
18.12
17.95
17.06
15.48
13.53
11.52
9.68
8.08
6.71
5.47
4.25
2.93
1.33
-0.77
-3.45
-6.60
-9.82
-12.56
-14.38
-15.08
-14.84
-14.08
-13.19
-12.32
-11.28
-9.69
-7.20
-3.73
0.48
4.90
8.90
11.98
13.90
14.79
15.08
15.34
16.00
17.16
18.43
19.08
18.34
15.78
11.46
5.83
-0.51
-7.08
-13.60
-19.88
-25.69
-30.70
-34.69
-37.70
-40.17
-42.74
-45.94
-49.96
-54.54
-59.27
-64.01
-69.09
-75.13
-82.39
-90.01
-95.71
-96.13
-87.94
-68.97
-39.07
0.04
45.34
93.36
140.67
184.10
220.68
247.69
262.95
265.03
253.53
229.01
192.97
147.93
97.44
45.99
-1.62
-41.10
-69.51
-85.70
-90.18
-84.78
-72.11
-55.11
-36.67
-19.50
-5.90
2.49
5.20
3.37
0.04
-0.33
6.78
24.02
50.61
81.96
110.94
130.55
136.56
128.84
110.84
87.67
63.90
42.31
23.71
7.61
-7.10
-21.66
-37.23
-54.66
-73.95
-93.79
-111.34
-122.97
-125.48
-117.49
-100.04
-76.19
-49.85
-24.45
-2.15
16.32
30.99
42.13
49.78
53.88
54.58
52.53
48.84
44.82
41.61
39.94
40.00
41.51
43.87
46.56
49.49
53.20
58.72
67.11
78.84
93.49
109.77
126.06
140.92
153.28
162.39
167.52
168.06
164.03
156.68
148.67
143.19
142.43
146.24
151.68
154.38
150.62
139.52
123.52
107.38
95.83
91.53
94.20
101.33
109.83
117.40
123.11
126.89
128.50
126.96
120.80
109.14
92.72
74.30
57.80
46.64
42.00
42.13
43.03
40.35
31.56
17.22
0.76
-13.26
-21.31
-22.56
-19.09
-14.73
-13.43
-17.73
-28.24
-43.59
-60.39
-73.03
-74.24
-56.88
-17.13
42.39
111.46
174.81
217.71
232.14
220.00
191.50
159.50
133.24
114.86
100.56
85.01
65.74
44.84
27.21
16.88
14.24
15.72
16.03
11.31
1.04
-12.01
-23.79
-31.49
-35.01
-36.89
-40.91
-50.13
-65.27
-84.45
-103.99
-120.18
-130.84
-136.28
-138.98
-142.37
-149.30
-160.72
-175.47
-190.92
-204.40
-214.43
-221.33
-226.93
-233.53
-242.80
-255.24
-270.49
-287.80
-306.31
-324.73
-340.79
-351.28
-353.17
-345.47
-330.41
-313.46
-301.40
-299.61
-310.27
-332.28
-363.14
-400.89
-444.85
-494.17
-545.62
-592.26
-624.50
-633.41
-614.50
-569.76
-506.82
-435.87
-365.69
-301.18
-242.82
-188.16
-133.88
-77.62
-18.81
41.01
98.36
148.21
184.81
202.97
199.54
174.54
131.80
78.25
22.37
-27.77
-66.38
-90.79
-101.28
-99.89
-89.05
-70.60
-45.64
-15.10
19.52
55.76
90.60
121.24
145.67
162.88
172.58
174.82
169.99
159.17
144.40
128.61
114.81
105.00
99.32
96.08
92.64
86.79
77.78
66.55
55.06
44.99
36.85
29.92
23.02
15.69
8.93
4.97
6.14
13.57
26.32
41.60
55.94
66.64
72.73
75.10
75.73
76.56
78.62
81.78
85.07
87.20
86.83
82.61
73.15
57.23
34.27
5.16
-27.43
-59.50
-86.62
-105.44
-114.61
-114.90
-108.49
-97.69
-84.11
-68.45
-50.94
-32.02
-12.80
5.18
20.37
31.77
39.11
42.70
43.11
40.83
36.19
29.43
20.81
10.64
-0.71
-12.90
-25.65
-38.76
-52.03
-65.14
-77.59
-88.53
-96.96
-102.00
-103.30
-101.42
-97.77
-94.27
-92.65
-93.91
-98.02
-104.10
-110.72
-116.15
-118.62
-116.57
-109.00
-95.99
-78.62
-58.62
-37.52
-16.09
5.71
28.45
52.58
77.85
102.94
125.71
143.45
153.68
154.83
146.74
130.96
110.40
88.66
69.12
53.92
43.30
35.69
28.37
18.68
5.20
-11.40
-28.26
-41.08
-45.41
-38.26
-19.27
9.03
41.93
73.88
99.69
115.63
119.88
112.60
95.81
73.00
48.34
25.38
6.06
-9.91
-24.42
-39.53
-55.84
-71.52
-82.81
-85.59
-77.34
-58.19
-30.57
2.42
38.49
76.75
116.88
157.61
195.72
226.45
245.14
249.49
240.90
224.17
205.75
191.28
183.77
182.98
186.21
189.78
190.45
186.31
176.82
162.44
144.17
123.29
101.29
79.87
60.74
45.29
34.09
26.70
21.69
17.05
10.81
1.56
-11.14
-27.00
-45.38
-65.97
-89.17
-116.07
-147.94
-185.50
-228.19
-273.65
-317.71
-354.98
-379.93
-388.32
-378.34
-351.32
-311.45
-264.72
-217.29
-173.98
-137.34
-107.47
-82.74
-60.76
-39.40
-17.27
5.97
29.91
53.90
77.55
101.28
126.49
155.41
190.30
232.33
280.46
330.90
377.72
414.23
434.85
436.89
421.60
394.15
362.40
334.56
316.56
309.91
311.07
312.82
307.00
287.88
254.42
210.61
163.71
121.21
88.20
66.13
53.32
46.25
41.09
34.58
24.36
9.10
-11.42
-36.31
-63.69
-91.08
-115.97
-136.31
-150.89
-159.40
-162.35
-160.92
-156.63
-151.10
-145.47
-140.13
-134.65
-128.07
-119.54
-108.82
-96.40
-83.20
-70.09
-57.48
-45.23
-32.95
-20.41
-7.84
3.92
13.35
18.73
18.57
12.17
0.11
-15.74
-32.69
-47.95
-59.47
-66.53
-69.87
-71.20
-72.28
-73.71
-74.39
-71.67
-62.70
-46.16
-23.55
0.92
21.88
35.04
39.06
35.84
29.21
22.83
18.63
16.46
15.05
13.30
10.97
8.60
6.68
5.12
3.14
-0.16
-5.18
-11.42
-17.66
-22.45
-24.69
-24.10
-21.35
-17.89
-15.42
-15.19
-17.48
-21.33
-24.84
-25.95
-23.25
-16.55
-6.99
3.43
12.54
18.76
21.34
20.43
16.83
11.60
6.00
1.29
-1.37
-1.35
1.04
4.28
5.82
2.99
-5.86
-20.22
-37.23
-52.50
-61.88
-63.27
-57.64
-48.50
-40.31
-36.39
-37.40
-41.35
-44.78
-44.64
-39.82
-31.49
-22.37
-15.45
-12.91
-15.68
-23.70
-36.02
-50.70
-64.55
-73.42
-73.25
-61.68
-39.42
-10.34
19.86
45.92
64.92
76.87
83.85
88.50
92.65
96.86
100.64
102.83
101.96
96.49
84.94
66.32
40.64
9.01
-26.31
-62.44
-96.29
-124.87
-145.68
-157.10
-158.66
-151.26
-137.08
-118.98
-99.82
-81.97
-67.15
-56.44
-50.21
-47.69
-46.66
-43.70
-35.09
-17.96
8.55
42.76
80.87
117.76
147.89
166.55
170.64
159.59
135.78
103.98
70.12
39.75
16.71
2.64
-2.76
-1.17
4.83
11.86
16.25
15.01
7.21
-5.16
-17.42
-23.80
-20.00
-5.30
16.72
39.33
55.23
59.05
48.84
26.33
-4.18
-37.49
-68.74
-94.09
-110.98
-118.03
-115.22
-104.30
-88.82
-73.42
-62.56
-58.68
-61.33
-67.33
-72.32
-72.65
-66.72
-55.25
-40.58
-25.64
-13.16
-5.32
-3.66
-8.72
-19.53
-33.27
-45.49
-51.29
-46.85
-30.69
-4.15
29.06
64.04
96.07
121.57
138.68
147.31
148.86
145.86
141.21
137.40
135.93
137.10
140.33
144.59
148.91
152.40
154.04
152.66
147.23
137.34
123.63
107.81
92.08
78.42
68.08
61.55
58.84
59.80
64.11
71.04
79.23
86.95
92.63
95.66
96.68
97.37
99.79
105.52
115.02
127.41
140.59
151.55
156.98
154.23
142.25
122.30
97.92
74.00
54.94
42.87
36.60
32.00
23.64
7.07
-19.52
-54.90
-95.49
-137.30
-177.37
-214.45
-248.73
-281.21
-313.24
-346.22
-381.44
-419.18
-458.01
-494.16
-521.84
-534.69
-528.12
-501.19
-457.23
-402.84
-345.25
-290.58
-242.58
-202.75
-170.97
-146.41
-127.90
-113.89
-102.35
-89.87
-73.45
-51.30
-23.50
8.25
41.58
74.33
105.27
134.56
165.74
202.65
247.77
300.60
357.38
412.21
458.74
491.98
509.65
515.41
514.08
509.62
504.05
498.40
494.28
493.84
498.55
507.37
520.28
534.27
544.52
546.20
536.89
517.71
492.14
464.15
411.88
324.57
205.40
72.50
-51.30
-150.17
-219.37
-262.23
-285.40
-295.51
-293.62
-280.19
-256.57
-226.57
-195.08
-166.01
-142.01
-123.95
-111.35
-99.92
-85.97
-67.88
-47.23
-27.23
-10.93
-0.25
4.24
2.80
-2.21
-9.48
-16.10
-22.31
-29.86
-40.50
-55.04
-73.12
-93.58
-113.97
-132.20
-147.17
-159.62
-171.09
-183.40
-198.09
-216.11
-237.60
-260.89
-282.66
-298.44
-304.42
-298.41
-280.85
-254.91
-225.51
-198.14
-176.60
-161.54
-150.47
-139.28
-124.04
-102.96
-77.27
-51.19
-31.66
-25.25
-35.79
-63.39
-105.70
-159.55
-221.72
-288.38
-353.69
-410.84
-451.20
-466.33
-450.95
-405.97
-338.67
-259.62
-178.25
-100.14
-29.83
29.12
73.12
98.93
104.99
93.25
70.36
46.26
42.83
71.87
129.51
197.73
257.25
298.83
324.73
341.83
354.52
360.31
351.05
319.35
264.23
193.16
118.88
53.83
5.23
-26.86
-42.29
-47.17
-48.12
-49.00
-50.19
-50.25
-48.05
-43.81
-38.44
-32.82
-29.12
-28.96
-32.71
-39.49
-47.55
-54.89
-59.62
-59.96
-54.39
-43.19
-27.36
-8.49
11.52
30.54
46.39
57.48
63.39
65.13
64.20
62.42
61.20
61.04
61.37
60.86
58.20
52.79
45.25
36.98
29.90
25.67
25.22
28.38
34.11
40.90
47.18
51.66
53.48
52.32
48.37
42.35
35.37
28.77
23.78
21.13
20.72
21.51
21.76
19.54
13.54
3.74
-8.30
-19.75
-27.60
-29.94
-26.86
-20.56
-14.34
-11.09
-11.97
-16.20
-21.84
-27.25
-32.22
-37.87
-45.80
-56.71
-69.65
-82.36
-92.34
-97.90
-98.59
-94.79
-86.82
-74.67
-58.24
-38.13
-16.30
4.20
20.23
29.70
32.38
29.83
24.49
18.74
14.22
11.64
11.16
12.80
16.53
22.20
29.28
36.88
43.72
48.49
50.19
48.34
42.95
34.18
21.90
5.17
-17.88
-49.45
-90.91
-141.59
-198.01
-254.07
-302.57
-336.85
-352.77
-349.50
-329.49
-297.48
-259.01
-219.09
-181.23
-147.23
-117.48
-91.64
-69.13
-49.37
-31.67
-15.20
0.61
15.62
28.69
37.90
41.60
39.53
32.88
23.26
10.89
-6.48
-32.53
-69.67
-116.16
-165.03
-206.00
-229.59
-230.94
-211.38
-177.71
-139.43
-106.07
-85.34
-81.80
-96.25
-125.13
-160.53
-191.60
-207.58
-200.87
-169.21
-115.38
-44.67
37.68
127.99
223.97
323.35
422.07
514.12
592.62
651.47
687.08
698.52
686.92
654.88
606.60
547.03
481.93
417.58
359.79
314.04
283.91
270.42
272.27
287.65
313.13
344.10
375.48
402.05
421.81
435.12
443.78
450.12
457.82
468.44
481.05
492.84
498.88
496.42
483.33
457.34
416.87
364.22
302.59
235.84
168.00
101.36
40.65
-9.64
-46.62
-86.45
-136.37
-195.15
-254.00
-291.97
-310.68
-316.29
-314.04
-310.31
-307.77
-305.51
-303.71
-304.15
-309.71
-324.42
-347.71
-376.66
-407.73
-437.61
-462.58
-481.49
-495.82
-509.20
-527.51
-553.88
-588.87
-629.94
-670.80
-701.44
-712.34
-697.85
-658.38
-601.08
-535.08
-468.96
-408.44
-355.34
-308.28
-265.41
-226.05
-190.81
-160.92
-136.00
-114.21
-93.21
-71.35
-48.31
-25.29
-4.47
12.40
24.70
33.66
41.72
51.36
64.20
80.41
98.89
117.94
136.17
153.10
169.35
186.29
205.53
228.28
254.94
284.74
315.59
344.34
367.39
381.56
385.17
378.47
363.48
343.35
321.36
300.05
280.88
264.21
249.55
235.99
222.48
208.10
192.20
174.44
154.70
133.18
110.40
87.30
65.28
45.90
30.30
18.67
10.04
2.57
-5.58
-15.58
-27.48
-40.32
-52.73
-63.40
-71.39
-76.23
-77.98
-76.99
-74.04
-70.04
-65.68
-61.31
-56.86
-52.30
-47.92
-44.24
-41.03
-36.56
-27.63
-10.76
15.68
50.04
87.47
121.76
148.01
164.69
173.76
179.04
183.89
189.56
195.24
199.22
200.13
197.36
190.84
180.59
166.81
150.61
134.47
121.99
116.58
119.90
130.77
145.34
158.53
166.05
166.09
159.74
150.23
141.45
136.57
137.24
143.28
153.01
163.67
172.09
175.48
172.07
161.59
145.38
125.86
105.69
87.13
71.46
59.08
49.74
42.86
37.87
34.11
30.76
26.76
20.96
12.42
0.70
-13.96
-30.58
-47.88
-64.70
-80.55
-95.83
-111.73
-129.75
-150.85
-174.95
-200.74
-226.23
-249.61
-270.26
-289.12
-308.11
-329.42
-354.60
-384.46
-419.17
-458.02
-498.79
-536.88
-565.63
-577.95
-569.17
-539.52
-494.77
-444.34
-397.68
-360.72
-334.24
-314.73
-297.10
-277.66
-255.52
-232.12
-209.35
-187.81
-166.43
-143.22
-116.92
-88.04
-58.84
-31.99
-8.87
11.52
32.60
58.64
93.03
136.64
187.26
240.04
288.78
327.46
351.73
359.90
353.28
335.73
312.33
288.00
266.59
250.67
241.75
240.55
246.73
258.49
272.55
284.80
291.54
290.76
282.85
270.29
256.57
244.76
236.77
232.79
231.74
231.85
231.35
228.92
223.80
215.57
203.67
187.10
164.70
135.69
100.67
61.78
22.20
-15.25
-49.45
-81.51
-113.98
-149.21
-187.82
-227.95
-266.01
-298.14
-321.68
-335.74
-340.81
-338.13
-329.12
-315.41
-299.06
-282.67
-268.87
-259.41
-254.38
-252.03
-249.48
-243.92
-233.72
-218.92
-200.95
-181.92
-163.65
-147.21
-132.73
-119.76
-107.68
-95.98
-84.36
-72.61
-60.59
-48.32
-36.19
-25.05
-16.08
-10.42
-8.53
-9.84
-12.70
-15.10
-15.35
-12.75
-7.66
-1.11
5.79
12.35
18.40
24.23
30.22
36.65
43.55
50.74
58.00
65.17
72.27
79.35
86.29
92.69
97.79
100.73
100.89
98.26
93.48
87.63
81.86
76.99
73.49
71.56
71.23
72.38
74.57
76.89
78.21
77.61
74.83
70.62
66.32
63.15
61.48
60.68
59.46
56.81
52.64
47.85
43.82
41.65
41.65
43.44
46.36
49.71
52.79
54.76
54.62
51.50
45.24
36.63
27.27
18.91
12.77
9.25
8.05
8.68
10.68
13.66
17.13
20.46
23.12
25.05
26.86
29.63
34.25
40.95
48.98
56.94
63.41
67.53
69.30
69.38
68.64
67.62
66.36
64.41
61.12
55.96
48.71
39.51
28.70
16.80
4.35
-7.98
-19.58
-30.01
-39.14
-47.22
-54.67
-61.87
-68.90
-75.55
-81.51
-86.48
-90.35
-93.18
-95.17
-96.62
-97.94
-99.60
-101.93
-104.83
-107.71
-109.52
-109.08
-105.68
-99.24
-90.57
-80.93
-71.70
-63.79
-57.45
-52.28
-47.46
-42.30
-36.62
-30.92
-26.24
-23.69
-23.86
-26.57
-30.97
-35.86
-40.23
-43.61
-46.01
-47.85
-49.67
-51.90
-54.67
-57.82
-60.87
-63.27
-64.65
-65.03
-64.91
-65.13
-66.53
-69.63
-74.58
-81.23
-89.46
-99.29
-110.85
-124.13
-138.75
-153.86
-168.48
-181.77
-193.32
-203.25
-211.93
-219.95
-228.02
-236.79
-246.66
-257.64
-269.19
-279.86
-287.48
-289.53
