1565944232.00
64.000000
-0.00
-0.00
-0.00
-0.00
-0.00
-0.00
-0.00
-0.00
-0.00
-0.00
0.00
0.01
0.01
-0.00
-0.03
-0.05
-0.05
0.00
0.13
0.36
0.66
1.01
1.37
1.72
2.06
2.40
2.79
3.24
3.80
4.43
5.08
5.71
6.29
6.84
7.42
8.10
8.94
10.04
11.32
12.66
13.96
15.15
16.29
17.54
19.09
21.12
23.84
27.06
30.52
33.93
37.11
40.10
43.22
46.89
51.45
57.32
64.18
71.54
78.87
85.79
92.38
99.09
106.66
115.63
126.61
139.14
152.49
165.80
178.46
190.48
202.43
215.65
228.93
244.63
263.49
285.71
310.07
333.57
351.67
359.57
353.87
333.78
301.94
262.47
219.92
177.50
136.48
96.66
57.49
19.00
-17.95
-51.72
-81.49
-107.13
-129.33
-149.22
-167.84
-185.70
-202.72
-218.42
-232.17
-243.94
-254.20
-263.60
-273.05
-283.35
-295.04
-308.45
-323.82
-340.99
-359.29
-376.86
-390.76
-397.54
-394.35
-380.13
-356.20
-325.87
-293.14
-261.40
-232.43
-206.43
-182.72
-160.61
-139.88
-120.78
-103.65
-88.55
-75.14
-62.86
-51.20
-39.86
-28.94
-18.72
-9.52
-1.49
5.47
11.60
17.20
22.32
26.72
30.02
31.93
32.66
32.89
33.46
34.98
37.51
40.49
43.07
44.52
44.49
43.17
41.13
39.04
37.39
36.42
35.91
35.42
34.44
32.62
30.02
27.12
24.70
23.38
23.36
24.22
25.23
25.65
24.99
23.27
20.91
18.55
16.81
15.88
15.45
14.83
13.30
10.56
7.03
3.68
1.59
1.39
2.83
5.01
6.73
7.19
6.26
4.40
2.22
0.22
-1.38
-2.45
-2.81
-2.18
-0.23
3.15
7.71
12.90
18.05
22.65
26.43
29.29
31.15
31.87
31.43
30.03
28.27
26.83
26.22
26.43
26.84
26.60
25.11
22.39
18.98
15.59
12.40
9.03
4.71
-1.09
-8.21
-15.86
-22.98
-28.72
-32.71
-35.17
-36.53
-37.29
-37.83
-38.32
-38.82
-39.32
-39.75
-39.99
-39.89
-39.27
-37.99
-36.02
-33.43
-30.45
-27.50
-24.98
-23.15
-21.90
-20.82
-19.32
-17.02
-14.02
-10.88
-8.38
-7.03
-6.86
-7.36
-7.92
-8.02
-7.46
-6.27
-4.66
-2.75
-0.60
1.71
4.10
6.32
8.21
9.81
11.32
13.08
15.12
17.05
18.11
17.65
15.57
12.52
9.64
8.10
8.50
10.58
13.52
16.32
18.44
19.93
21.19
22.54
23.89
24.90
25.14
24.46
23.06
21.45
20.19
19.75
20.30
21.57
23.11
24.24
24.41
23.44
21.59
19.45
17.67
16.61
16.22
16.22
16.22
16.09
15.78
15.31
14.45
12.96
10.83
8.52
6.90
6.83
8.65
11.88
15.31
17.50
17.42
14.89
10.65
6.07
2.46
0.69
0.84
2.21
3.88
5.11
5.61
5.64
5.59
5.68
5.88
5.90
5.50
4.74
3.87
3.19
2.83
2.73
2.75
2.84
3.06
3.48
3.97
4.29
4.11
3.41
2.42
1.61
1.38
1.75
2.32
2.44
1.67
-0.03
-2.10
-3.77
-4.40
-3.88
-2.69
-1.57
-1.03
-1.10
-1.28
-0.93
0.26
2.10
3.97
5.18
5.44
4.87
3.95
3.08
2.40
1.86
1.44
1.24
1.55
2.67
4.49
6.51
7.95
8.24
7.30
5.59
3.85
2.46
1.34
-0.02
-1.94
-4.17
-5.96
-6.40
-5.11
-2.66
-0.22
1.05
0.66
-0.97
-2.72
-3.59
-3.20
-1.85
-0.16
1.52
3.13
4.85
6.77
8.54
9.53
9.24
7.53
4.86
2.12
0.15
-0.57
-0.17
0.81
1.64
1.88
1.37
0.29
-0.98
-2.15
-2.96
-3.37
-3.44
-3.27
-3.03
-2.84
-2.90
-3.28
-3.98
-4.83
-5.59
-5.96
-5.74
-4.97
-3.85
-2.72
-1.92
-1.71
-2.03
-2.66
-3.24
-3.52
-3.44
-3.20
-3.12
-3.31
-3.66
-3.76
-3.26
-2.04
-0.36
1.35
2.70
3.53
4.04
4.48
5.03
5.57
5.73
5.19
3.94
2.36
0.95
0.17
0.07
0.45
1.00
1.52
2.09
2.85
3.88
4.99
5.85
6.12
5.69
4.77
3.63
2.51
1.50
0.71
0.30
0.58
1.68
3.35
5.04
6.00
5.83
4.57
2.79
1.29
0.64
0.96
2.00
3.34
4.50
5.11
4.86
3.63
1.60
-0.73
-2.62
-3.44
-2.98
-1.54
0.25
1.62
2.07
1.50
0.14
-1.51
-2.97
-3.88
-4.12
-3.69
-2.75
-1.52
-0.30
0.60
1.00
0.73
-0.18
-1.56
-3.13
-4.59
-5.63
-6.02
-5.68
-4.65
-3.22
-1.79
-0.80
-0.58
-1.21
-2.41
-3.71
-4.64
-4.84
-4.26
-2.99
-1.25
0.62
2.27
3.32
3.55
3.01
2.08
1.36
1.35
2.11
3.31
4.35
4.73
4.33
3.32
2.02
0.67
-0.61
-1.72
-2.35
-2.10
-0.74
1.52
4.02
5.93
6.62
6.05
4.68
3.18
1.96
0.97
-0.10
-1.53
-3.25
-4.80
-5.61
-5.36
-4.27
-2.96
-2.06
-1.81
-1.92
-1.67
-0.46
1.83
4.69
7.19
8.56
8.71
8.20
7.82
8.05
8.64
8.79
7.74
5.34
2.17
-0.78
-2.65
-3.26
-2.91
-2.26
-1.73
-1.29
-0.51
1.00
3.20
5.47
6.96
6.96
5.28
2.42
-0.75
-3.30
-4.66
-4.79
-4.07
-3.04
-2.19
-1.71
-1.53
-1.55
-1.73
-2.05
-2.41
-2.72
-2.90
-3.04
-3.30
-4.01
-5.35
-7.32
-9.65
-11.80
-13.13
-13.12
-11.60
-8.85
-5.50
-2.45
-0.43
0.13
-0.73
-2.52
-4.46
-5.76
-5.79
-4.30
-1.60
1.53
4.05
4.96
3.89
1.37
-1.43
-3.14
-2.97
-1.00
2.00
5.10
7.69
9.41
9.64
7.42
1.98
-6.28
-15.03
-20.62
-19.86
-12.02
0.48
13.06
21.55
24.13
21.86
17.38
12.90
9.05
5.08
0.43
-4.46
-8.00
-8.52
-5.42
0.44
7.34
13.49
17.60
18.98
17.52
13.74
8.75
4.12
1.24
0.52
1.17
1.72
0.98
-1.08
-3.39
-4.67
-4.40
-3.38
-3.17
-4.89
-8.31
-11.80
-13.33
-11.86
-7.91
-3.43
-0.49
-0.11
-1.62
-3.24
-3.20
-1.00
2.42
5.23
5.97
4.42
1.71
-0.42
-0.75
0.86
3.44
5.58
6.30
5.56
4.04
2.70
2.16
2.40
2.98
3.38
3.39
3.09
2.71
2.30
1.77
0.89
-0.30
-1.56
-2.57
-3.15
-3.51
-4.07
-5.18
-6.75
-8.16
-8.63
-7.74
-5.68
-3.16
-1.02
0.33
1.04
1.65
2.52
3.56
4.25
4.05
2.92
1.42
0.48
0.84
2.48
4.59
5.98
5.71
3.57
0.17
-3.47
-6.39
-8.13
-8.90
-9.14
-9.23
-9.22
-8.80
-7.71
-6.06
-4.44
-3.69
-4.33
-6.20
-8.49
-10.05
-9.98
-8.05
-4.80
-1.11
2.08
4.22
5.27
5.57
5.51
5.41
5.33
5.15
4.78
4.19
3.68
3.54
4.07
5.33
7.09
8.89
10.28
11.04
11.33
11.49
11.79
12.20
12.35
11.79
10.31
8.12
5.75
3.73
2.42
1.70
1.06
0.12
-1.23
-2.57
-3.26
-2.80
-1.25
0.80
2.44
2.90
1.86
-0.55
-3.72
-6.88
-9.25
-10.42
-10.40
-9.83
-9.58
-10.36
-12.28
-14.69
-16.45
-16.46
-14.22
-10.00
-4.56
1.36
7.37
13.28
18.82
23.32
25.94
26.13
24.08
20.80
17.66
15.91
16.03
17.71
19.90
21.35
21.12
18.82
14.76
9.71
4.73
0.66
-1.97
-3.21
-3.54
-3.58
-3.78
-4.17
-4.33
-3.59
-1.46
1.97
5.76
8.46
8.70
5.92
0.68
-5.57
-11.03
-14.26
-14.69
-12.68
-9.37
-6.24
-4.78
-6.12
-10.74
-18.11
-26.62
-33.81
-37.31
-35.84
-30.17
-22.95
-17.56
-16.68
-20.93
-28.62
-36.84
-43.10
-46.67
-48.51
-49.80
-50.54
-49.18
-43.87
-34.36
-22.70
-12.37
-6.34
-5.31
-7.50
-9.94
-10.34
-8.27
-4.90
-1.57
1.28
4.29
8.51
14.04
19.80
23.90
24.89
22.62
18.20
13.47
9.97
8.15
7.35
6.37
4.44
2.01
0.39
0.89
3.60
7.28
10.13
11.04
10.66
11.06
14.66
22.65
34.12
46.18
54.83
56.47
49.38
34.84
17.23
2.72
-3.25
1.57
14.94
31.32
44.70
51.60
52.37
49.94
47.38
45.56
42.99
37.46
28.18
16.86
6.73
0.46
-1.51
-1.26
-1.97
-6.18
-14.45
-25.31
-36.11
-44.34
-48.49
-48.54
-45.65
-41.48
-37.41
-34.03
-31.14
-28.10
-24.51
-20.41
-16.35
-12.96
-10.46
-8.51
-6.35
-3.32
0.71
5.09
8.75
10.77
10.89
9.66
8.11
7.00
6.50
6.16
5.43
4.19
2.92
2.49
3.53
5.99
9.16
12.10
14.33
16.04
17.92
20.53
23.76
26.70
28.16
27.37
24.42
20.23
16.11
13.00
11.17
10.10
8.95
6.95
3.73
-0.52
-5.19
-9.57
-13.14
-15.76
-17.75
-19.62
-21.70
-23.86
-25.57
-26.18
-25.49
-23.86
-21.99
-20.45
-19.13
-17.31
-14.21
-9.67
-4.53
-0.51
0.81
-1.35
-6.47
-12.93
-18.80
-22.49
-23.22
-21.02
-16.51
-10.58
-4.25
1.56
6.09
8.98
10.40
10.97
11.51
12.53
14.07
15.78
17.46
19.59
23.38
30.20
40.62
53.43
65.73
73.88
75.03
68.52
56.32
42.19
30.22
23.28
22.28
26.30
33.47
41.96
50.52
58.50
65.42
70.82
74.22
75.43
74.84
73.38
72.24
72.44
74.29
77.09
79.28
78.92
74.34
64.65
49.84
30.53
7.25
-20.01
-51.76
-88.08
-127.38
-165.94
-199.30
-224.95
-244.61
-263.76
-288.50
-321.27
-358.59
-392.44
-414.92
-423.12
-421.00
-416.85
-417.94
-425.94
-435.77
-438.90
-428.18
-401.17
-360.38
-310.72
-256.46
-199.35
-139.01
-74.50
-5.91
65.10
135.26
200.92
259.09
307.74
346.28
374.71
392.59
398.30
389.68
365.52
327.28
280.27
231.45
187.41
152.13
125.87
105.95
88.67
71.33
53.30
35.90
21.21
11.19
7.02
9.13
17.44
31.54
50.39
72.11
94.06
113.16
126.66
132.37
129.12
116.16
94.27
65.47
32.63
-0.84
-31.58
-56.58
-73.23
-79.99
-76.38
-62.68
-39.84
-9.21
27.72
69.10
112.88
156.56
197.11
231.22
255.98
269.46
270.84
261.28
243.51
220.93
196.39
171.40
145.95
119.36
91.38
63.16
37.47
17.45
5.45
1.68
4.58
11.45
19.86
27.70
32.26
29.65
15.59
-11.91
-49.91
-90.06
-121.60
-136.49
-133.89
-120.89
-108.74
-106.95
-118.57
-139.48
-161.74
-178.33
-186.13
-185.85
-179.70
-168.92
-153.34
-132.53
-107.43
-80.97
-56.80
-37.49
-23.08
-11.11
2.01
18.84
39.40
60.79
77.93
85.27
78.56
56.61
22.53
-16.75
-51.91
-73.59
-75.64
-57.53
-25.43
9.12
33.33
38.18
22.21
-7.63
-39.30
-61.38
-68.16
-61.76
-49.98
-41.18
-39.71
-44.40
-50.87
-55.77
-59.64
-66.25
-78.69
-95.46
-109.24
-109.78
-89.34
-47.06
9.65
68.13
115.92
145.48
156.19
153.28
144.21
135.58
131.35
132.24
136.94
142.63
146.03
144.54
136.67
122.32
102.59
79.34
54.61
30.56
9.58
-5.87
-13.83
-13.92
-8.21
-0.90
3.11
0.31
-9.69
-24.30
-39.29
-50.93
-57.45
-59.27
-58.15
-56.03
-54.36
-53.68
-53.84
-54.31
-54.36
-53.37
-50.88
-46.72
-41.00
-33.92
-25.79
-17.13
-8.94
-2.61
0.49
-0.32
-4.28
-9.35
-13.06
-13.63
-10.93
-6.37
-2.00
0.54
0.83
-0.30
-1.50
-1.64
-0.44
1.51
3.12
3.59
2.78
1.44
0.71
1.54
4.06
7.64
11.30
14.36
16.68
18.48
19.76
20.01
18.50
14.98
10.26
6.10
4.28
5.55
9.01
12.55
14.03
12.36
7.96
2.32
-2.74
-5.88
-6.69
-5.69
-4.03
-3.07
-3.75
-6.22
-9.89
-13.74
-17.00
-19.45
-21.30
-22.71
-23.36
-22.58
-19.77
-15.05
-9.48
-4.63
-1.79
-1.41
-2.83
-4.72
-5.77
-5.27
-3.24
-0.30
2.79
5.56
8.00
10.32
12.68
14.85
16.28
16.36
14.81
11.87
8.33
5.19
3.17
2.59
3.21
4.40
5.51
6.03
5.79
5.03
4.33
4.38
5.58
7.73
10.04
11.41
10.99
8.64
5.03
1.42
-0.98
-1.42
-0.04
2.35
4.72
6.26
6.79
6.51
5.83
4.97
4.12
3.51
3.61
4.86
7.08
9.30
10.07
8.33
4.26
-0.63
-4.25
-5.11
-3.16
0.29
3.41
4.86
4.30
2.14
-0.99
-4.72
-8.90
-13.24
-17.29
-20.44
-22.35
-23.09
-22.88
-21.88
-20.01
-17.37
-14.42
-12.14
-11.40
-12.41
-14.23
-15.16
-13.68
-9.37
-3.38
2.13
5.11
4.84
2.35
-0.19
-0.72
1.40
5.04
8.09
8.78
6.90
3.92
1.97
2.40
4.90
7.67
8.68
6.99
3.33
-0.51
-2.83
-3.02
-1.76
-0.33
0.34
0.28
0.16
0.84
2.51
4.57
5.99
5.99
4.61
2.73
1.55
1.82
3.31
4.82
5.02
3.24
0.10
-2.85
-4.00
-2.71
0.30
3.43
5.29
5.54
4.93
4.55
4.97
5.71
5.62
3.76
0.12
-4.24
-7.74
-9.19
-8.30
-5.70
-2.50
0.31
2.11
2.66
1.90
-0.09
-3.15
-6.87
-10.46
-12.96
-13.54
-11.95
-8.78
-5.46
-3.58
-4.14
-6.96
-10.74
-13.85
-15.12
-14.53
-13.05
-11.85
-11.55
-11.90
-12.16
-11.80
-10.94
-10.22
-10.31
-11.41
-13.13
-14.94
-16.55
-17.97
-19.27
-20.18
-20.11
-18.50
-15.43
-11.68
-8.39
-6.18
-4.65
-2.74
0.53
5.11
9.95
13.67
15.82
17.25
19.63
23.91
29.35
33.72
34.84
32.36
28.33
25.98
27.47
32.31
37.45
39.22
35.73
28.00
19.23
12.72
9.82
9.46
9.05
6.51
1.49
-4.54
-9.41
-11.57
-10.69
-7.73
-4.11
-1.15
0.45
0.56
-0.36
-1.63
-2.45
-2.43
-1.78
-1.13
-1.18
-2.11
-3.44
-4.27
-3.97
-2.63
-1.17
-0.74
-1.94
-4.53
-7.39
-9.36
-9.85
-9.05
-7.59
-6.15
-5.04
-4.30
-3.90
-3.96
-4.53
-5.39
-6.03
-5.84
-4.49
-2.30
-0.03
1.40
1.51
0.55
-0.72
-1.51
-1.43
-0.67
0.15
0.44
0.04
-0.72
-1.32
-1.31
-0.68
0.22
1.00
1.39
1.44
1.36
1.35
1.44
1.45
1.25
0.89
0.67
0.96
1.98
3.56
5.22
6.47
7.05
7.15
7.19
7.45
7.89
8.11
7.64
6.34
4.61
3.26
3.17
4.78
7.85
11.49
14.58
16.22
16.09
14.55
12.42
10.60
9.68
9.64
9.96
9.80
8.50
5.93
2.75
0.10
-0.85
0.55
3.98
8.34
12.07
13.80
12.79
9.20
3.93
-1.70
-6.10
-7.88
-6.10
-0.60
7.48
15.59
20.24
18.11
7.65
-9.61
-29.21
-45.34
-53.27
-51.58
-42.65
-31.32
-22.28
-17.82
-17.17
-17.51
-16.13
-12.06
-6.43
-1.35
1.51
2.04
1.47
1.51
3.33
7.10
11.97
16.61
19.78
20.76
19.58
17.12
14.67
13.45
13.84
14.91
14.46
10.14
0.66
-13.13
-28.19
-40.46
-46.73
-46.10
-40.38
-32.99
-27.22
-24.64
-24.57
-24.92
-23.52
-19.50
-13.63
-7.79
-3.73
-2.14
-2.31
-2.61
-1.53
1.50
5.88
10.19
13.03
13.61
11.95
8.78
5.10
1.89
-0.11
-0.43
0.95
3.62
6.71
9.32
10.97
11.96
13.09
15.17
18.22
21.20
22.58
21.20
17.13
11.77
7.14
4.80
5.14
7.22
9.41
10.37
9.60
7.50
4.82
2.05
-0.84
-4.15
-7.86
-11.46
-14.01
-14.86
-14.24
-13.24
-13.24
-14.83
-17.35
-19.16
-18.70
-15.52
-10.71
-6.21
-3.68
-3.54
-4.88
-6.11
-5.90
-3.80
-0.24
3.90
7.63
10.21
11.14
10.34
8.15
5.36
3.07
2.18
3.05
5.43
8.70
12.23
15.63
18.67
21.02
22.08
21.16
17.97
12.93
7.18
2.11
-1.26
-2.61
-2.42
-1.57
-0.89
-0.90
-1.74
-3.29
-5.36
-7.63
-9.79
-11.49
-12.31
-12.00
-10.40
-7.61
-4.03
-0.36
2.42
3.33
1.87
-1.56
-5.58
-8.31
-8.23
-4.93
0.63
6.49
10.71
12.00
10.16
5.80
-0.17
-6.80
-13.13
-17.99
-20.02
-17.98
-11.54
-1.78
8.73
16.77
19.73
16.75
9.24
0.08
-7.48
-11.30
-11.04
-7.99
-4.22
-1.49
-0.43
-0.24
0.63
3.40
7.80
12.07
13.70
11.03
4.47
-3.50
-9.46
-10.79
-7.14
-0.52
5.85
9.33
9.14
6.50
3.60
2.25
2.96
4.85
6.38
6.26
4.19
0.95
-1.89
-2.84
-1.39
1.70
4.83
6.48
6.16
4.56
2.96
2.29
2.47
2.53
1.39
-1.33
-5.08
-8.62
-10.76
-10.75
-8.65
-5.14
-1.38
1.28
1.78
-0.17
-3.82
-7.66
-10.08
-10.29
-8.70
-6.57
-5.07
-4.51
-4.27
-3.45
-1.68
0.54
2.28
2.82
2.22
1.24
0.81
1.51
3.36
5.86
8.36
10.23
11.08
10.80
9.57
7.84
6.22
5.39
5.83
7.71
10.69
13.91
16.29
16.93
15.52
12.58
9.20
6.49
5.00
4.55
4.44
4.03
3.00
1.52
-0.18
-2.08
-4.34
-7.00
-9.46
-10.53
-9.03
-4.70
1.17
6.01
7.13
3.26
-4.49
-12.95
-18.38
-18.39
-13.20
-5.43
1.52
5.23
5.29
2.97
-0.14
-3.29
-6.69
-10.74
-15.11
-18.49
-19.43
-17.45
-13.66
-10.12
-8.55
-9.22
-10.89
-11.80
-10.91
-8.57
-6.09
-4.62
-4.39
-4.54
-3.87
-1.59
2.18
6.63
10.70
13.49
14.44
13.40
10.71
7.23
4.05
2.21
2.23
3.90
6.44
8.99
10.95
12.33
13.39
14.42
15.40
15.96
15.66
14.17
11.50
7.94
3.97
0.00
-3.63
-6.73
-9.14
-10.71
-11.35
-11.15
-10.55
-10.30
-11.09
-13.35
-16.69
-20.12
-22.54
-23.19
-22.09
-19.83
-17.11
-14.12
-10.56
-5.88
0.24
7.37
14.31
19.40
21.12
18.81
13.20
6.32
0.77
-1.31
0.73
5.82
11.64
15.88
17.29
16.10
13.48
10.68
8.21
5.85
3.23
0.24
-2.62
-4.71
-5.74
-5.91
-5.64
-5.20
-4.67
-3.85
-2.68
-1.33
0.00
1.19
2.26
3.34
4.34
5.00
4.99
4.16
2.67
0.97
-0.45
-1.20
-1.11
-0.19
1.39
3.23
4.78
5.46
4.90
3.21
1.00
-1.00
-2.23
-2.47
-1.89
-0.82
0.39
1.41
1.93
1.66
0.61
-0.85
-2.05
-2.34
-1.53
-0.07
1.07
1.05
-0.41
-2.77
-4.95
-5.92
-5.27
-3.38
-1.18
0.38
0.81
0.26
-0.72
-1.48
-1.74
-1.68
-1.79
-2.52
-4.00
-5.82
-7.35
-7.97
-7.46
-5.97
-4.02
-2.20
-0.93
-0.38
-0.51
-1.06
-1.72
-2.23
-2.43
-2.21
-1.46
-0.07
1.93
4.23
6.16
6.93
6.09
3.88
1.21
-0.76
-1.28
-0.38
1.14
2.27
2.35
1.44
0.16
-0.70
-0.56
0.57
2.21
3.62
4.07
3.21
1.29
-0.93
-2.54
-2.94
-2.20
-1.05
-0.33
-0.44
-1.05
-1.34
-0.62
1.20
3.49
5.18
5.37
3.77
0.78
-2.77
-5.92
-7.89
-8.29
-7.11
-4.77
-1.99
0.42
1.80
2.00
1.33
0.37
-0.32
-0.59
-0.66
-0.89
-1.50
-2.31
-2.88
-2.69
-1.51
0.36
2.31
3.73
4.42
4.57
4.61
4.78
4.93
4.67
3.61
1.79
-0.35
-2.14
-3.06
-2.96
-2.01
-0.59
0.95
2.37
3.33
3.48
2.56
0.67
-1.51
-2.90
-2.62
-0.52
2.63
5.52
6.97
6.45
4.27
1.25
-1.68
-3.85
-4.84
-4.46
-2.79
-0.21
2.43
4.19
4.36
2.98
0.83
-0.91
-1.37
-0.48
1.01
1.97
1.60
-0.28
-3.18
-6.23
-8.54
-9.46
-8.68
-6.30
-2.83
0.90
3.96
5.67
5.88
4.97
3.67
2.70
2.52
3.14
4.29
5.47
6.24
6.40
5.91
4.96
3.66
2.07
0.06
-2.42
-5.23
-7.87
-9.62
-9.96
-8.88
-7.00
-5.28
-4.50
-4.83
-5.75
-6.35
-5.89
-4.19
-1.58
1.13
3.14
3.96
3.65
2.67
1.68
1.07
0.76
0.30
-0.82
-2.61
-4.47
-5.46
-4.98
-3.20
-1.07
0.25
0.18
-0.97
-2.25
-2.70
-1.94
-0.34
1.42
2.77
3.51
3.66
3.30
2.45
1.22
0.01
-0.53
0.23
2.44
5.53
8.44
10.21
10.55
10.03
9.62
9.91
10.54
10.38
8.32
4.11
-1.29
-6.14
-8.99
-9.46
-8.29
-6.72
-5.61
-4.95
-4.26
-3.04
-1.31
0.44
1.64
2.17
2.24
2.24
2.28
2.22
1.86
1.11
0.09
-1.05
-2.21
-3.25
-3.97
-3.99
-3.12
-1.76
-0.78
-1.22
-3.48
-7.00
-10.43
-12.34
-12.17
-10.51
-8.66
-7.73
-7.97
-8.52
-8.16
-6.16
-2.75
0.93
3.49
4.10
2.72
0.02
-3.11
-5.82
-7.50
-7.76
-6.38
-3.45
0.62
5.10
9.05
11.71
12.74
12.29
11.03
9.76
9.07
9.13
9.68
10.30
10.69
10.85
10.97
11.33
11.90
12.31
12.00
10.55
7.93
4.59
1.08
-2.16
-5.00
-7.40
-9.18
-9.90
-9.09
-6.60
-2.94
0.88
3.78
5.17
5.13
4.23
3.05
1.75
0.19
-1.77
-3.82
-5.28
-5.46
-4.17
-2.00
0.01
0.90
0.31
-1.35
-3.28
-4.63
-4.99
-4.42
-3.36
-2.30
-1.63
-1.58
-2.18
-3.26
-4.60
-5.82
-6.55
-6.44
-5.30
-3.27
-0.76
1.56
3.12
3.65
3.34
2.69
2.25
2.29
2.79
3.51
4.13
4.39
4.06
3.03
1.35
-0.61
-2.29
-3.12
-2.97
-2.16
-1.44
-1.52
-2.57
-4.18
-5.55
-5.94
-5.12
-3.45
-1.73
-0.79
-1.05
-2.35
-4.01
-5.19
-5.25
-4.05
-2.07
-0.10
1.13
1.37
1.00
0.78
1.41
3.19
5.88
8.77
11.02
11.91
11.13
8.81
5.48
1.89
-1.25
-3.48
-4.72
-5.15
-5.15
-5.08
-5.18
-5.49
-5.90
-6.21
-6.22
-5.79
-4.87
-3.51
-1.86
-0.21
1.12
1.85
1.94
1.58
1.13
0.97
1.30
2.08
3.18
4.55
6.23
8.31
10.60
12.43
12.91
11.26
7.57
3.04
-0.58
-1.78
-0.41
2.36
4.65
5.12
3.91
2.31
1.79
2.72
4.05
3.95
1.29
-3.49
-8.42
-11.37
-11.26
-8.71
-5.44
-2.91
-1.54
-0.73
0.25
1.48
2.20
1.52
-0.88
-4.38
-7.70
-9.75
-10.14
-9.16
-7.45
-5.57
-3.90
-2.70
-2.23
-2.62
-3.68
-4.76
-5.09
-4.23
-2.38
-0.33
1.11
1.60
1.49
1.39
1.75
2.49
3.05
2.88
1.88
0.50
-0.59
-0.89
-0.48
0.16
0.43
0.06
-0.84
-1.76
-2.18
-1.80
-0.72
0.58
1.58
2.01
1.98
1.99
2.51
3.66
5.06
6.02
6.00
4.94
3.37
2.06
1.57
1.93
2.64
3.09
2.94
2.28
1.46
0.84
0.59
0.73
1.27
2.18
3.39
4.64
5.41
5.24
3.91
1.64
-0.91
-3.03
-4.26
-4.57
-4.28
-3.86
-3.55
-3.40
-3.29
-3.11
-2.90
-2.81
-3.01
-3.49
-3.97
-4.06
-3.45
-2.24
-0.86
0.16
0.48
0.24
-0.06
0.09
1.01
2.68
4.87
7.26
9.38
10.66
10.42
8.15
3.99
-1.05
-5.38
-7.46
-6.72
-3.95
-0.86
0.88
0.64
-0.92
-2.38
-2.55
-1.24
0.73
2.27
2.74
2.35
1.79
1.68
2.07
2.43
2.13
0.95
-0.84
-2.56
-3.61
-3.83
-3.45
-2.85
-2.31
-1.86
-1.41
-0.87
-0.20
0.48
1.06
1.40
1.33
0.77
-0.21
-1.34
-2.15
-2.18
-1.24
0.47
2.35
3.59
3.62
2.32
0.17
-1.96
-3.15
-2.78
-0.78
2.41
5.80
8.24
8.74
6.94
3.30
-0.93
-4.30
-5.84
-5.46
-4.01
-2.58
-1.92
-1.94
-1.87
-0.86
1.45
4.61
7.73
9.92
10.71
10.13
8.46
6.05
3.10
-0.22
-3.69
-7.02
-9.70
-11.20
-10.96
-8.64
-4.34
1.12
6.35
9.82
10.51
8.34
4.31
-0.04
-3.40
-5.18
-5.75
-5.91
-6.38
-7.30
-8.20
-8.26
-6.75
-3.49
0.98
5.50
8.68
9.51
7.77
4.15
-0.03
-3.45
-5.44
-6.20
-6.43
-6.72
-7.03
-6.62
-4.62
-0.75
4.31
8.95
11.53
11.16
8.21
4.08
0.56
-1.13
-0.78
0.81
2.30
2.59
1.33
-1.01
-3.28
-4.06
-2.27
2.22
8.40
14.22
17.42
16.49
11.52
4.19
-3.00
-7.92
-9.73
-9.08
-7.37
-5.76
-4.61
-3.55
-2.17
-0.56
0.68
0.90
0.03
-1.39
-2.66
-3.39
-3.74
-4.20
-5.07
-6.34
-7.78
-9.25
-10.81
-12.25
-12.97
-12.02
-8.77
-3.62
1.79
5.38
5.76
3.15
-0.70
-3.68
-4.56
-3.64
-2.25
-1.68
-2.20
-2.98
-3.00
-1.79
0.13
1.73
2.24
1.79
1.17
1.44
3.15
6.00
9.07
11.25
11.73
10.35
7.55
4.11
0.89
-1.44
-2.56
-2.48
-1.53
-0.05
1.74
3.80
6.08
8.32
10.00
10.43
9.31
6.91
4.05
1.65
0.17
-0.56
-1.26
-2.50
-4.38
-6.35
-7.53
-7.34
-5.83
-3.64
-1.60
-0.23
0.39
0.46
0.25
-0.12
-0.61
-1.17
-1.66
-1.89
-1.86
-1.71
-1.68
-1.91
-2.35
-2.73
-2.68
-2.01
-0.82
0.55
1.62
2.02
1.74
1.05
0.33
-0.06
-0.02
0.32
0.70
0.92
0.94
0.89
0.89
1.07
1.40
1.72
1.93
2.12
2.53
3.40
4.69
5.96
6.43
5.44
2.94
-0.45
-3.65
-5.74
-6.46
-6.19
-5.72
-5.60
-5.82
-5.93
-5.52
-4.57
-3.64
-3.37
-4.05
-5.34
-6.39
-6.33
-4.71
-1.76
1.70
4.66
6.37
6.54
5.47
3.85
2.34
1.29
0.64
0.17
-0.34
-0.91
-1.30
-1.29
-0.83
-0.14
0.45
0.65
0.40
-0.15
-0.75
-1.26
-1.70
-2.16
-2.71
-3.23
-3.55
-3.39
-2.64
-1.39
0.05
1.19
1.63
1.24
0.26
-0.77
-1.34
-1.23
-0.62
0.09
0.56
0.68
0.55
0.33
0.08
-0.26
-0.76
-1.33
-1.69
-1.51
-0.59
0.93
2.65
4.15
5.09
5.38
5.12
4.50
3.60
2.53
1.37
0.32
-0.22
0.13
1.53
3.71
5.78
6.70
5.79
3.14
-0.25
-3.00
-3.97
-2.81
-0.04
3.38
6.56
9.01
10.56
11.15
10.80
9.68
8.32
7.52
8.06
10.28
13.86
17.96
21.66
24.32
25.69
25.79
24.85
23.27
21.74
21.01
21.55
23.21
24.92
25.29
23.32
18.96
13.40
8.53
6.05
6.68
9.76
13.47
15.69
14.72
9.93
1.68
-8.56
-18.80
-26.92
-31.32
-31.42
-27.81
-22.15
-16.47
-12.58
-11.32
-12.33
-14.46
-16.29
-16.89
-15.95
-13.67
-10.27
-5.78
-0.09
6.67
14.01
21.17
27.41
32.20
35.26
36.44
35.68
33.15
29.61
26.47
25.56
28.31
34.99
44.26
53.64
60.49
63.07
61.04
55.38
47.65
39.08
29.95
19.81
8.03
-5.21
-18.85
-31.45
-42.49
-53.25
-66.41
-84.37
-107.75
-134.67
-161.56
-185.18
-204.19
-219.30
-231.96
-242.09
-246.87
-241.46
-221.52
-185.85
-137.63
-83.59
-31.59
11.70
42.40
60.08
67.39
69.20
71.32
78.63
93.35
114.15
136.24
152.97
158.13
148.29
123.82
88.33
47.04
5.26
-32.31
-61.15
-76.89
-75.94
-57.20
-23.63
17.41
55.72
81.42
88.41
75.95
48.87
15.44
-15.37
-36.27
-42.96
-34.55
-13.12
16.83
49.20
77.44
96.08
101.99
94.94
77.18
52.35
24.46
-2.92
-26.90
-45.33
-56.48
-59.33
-53.81
-41.16
-24.13
-6.46
8.02
16.16
16.10
7.26
-9.79
-32.83
-57.72
-78.15
-86.47
-75.98
-43.87
6.48
64.90
116.77
147.57
147.97
117.03
62.74
-0.66
-57.06
-93.15
-101.81
-83.55
-45.74
-0.20
40.06
64.29
66.57
47.08
11.69
-29.76
-66.20
-88.09
-89.91
-71.69
-39.01
-1.34
31.01
50.28
53.52
43.06
24.73
5.08
-10.86
-20.31
-22.30
-16.83
-4.63
12.12
29.33
41.58
44.23
35.80
19.15
0.44
-13.80
-19.61
-16.94
-8.71
1.40
10.88
18.77
24.81
28.17
27.36
21.20
10.25
-2.65
-13.29
-18.05
-15.72
-7.96
1.76
9.95
14.60
15.59
14.04
11.26
8.08
4.80
1.57
-1.20
-2.84
-2.79
-1.03
1.72
4.26
5.50
4.91
2.89
0.52
-0.96
-0.68
1.31
4.20
6.64
7.50
6.37
3.72
0.56
-2.09
-3.84
-4.99
-6.18
-7.61
-8.77
-8.54
-6.16
-1.92
2.66
5.67
5.95
3.98
1.53
0.54
1.87
4.66
7.02
7.35
5.65
3.62
3.73
7.57
14.80
23.26
30.11
33.46
33.37
31.69
31.08
33.50
39.17
46.34
52.18
54.17
51.40
45.14
38.28
33.98
34.20
38.80
45.63
51.43
53.23
49.43
40.05
26.35
10.18
-6.21
-20.20
-29.20
-31.40
-27.19
-20.00
-16.20
-22.86
-44.47
-80.07
-122.65
-161.19
-184.97
-187.74
-169.87
-137.53
-99.35
-62.79
-32.20
-8.89
7.14
15.99
17.55
12.49
3.11
-6.79
-13.39
-14.69
-11.23
-5.54
-0.43
2.31
2.57
1.57
0.91
1.91
5.23
11.12
19.33
28.95
38.41
45.73
49.12
47.88
42.40
34.03
24.64
15.70
8.12
2.21
-1.97
-4.12
-3.36
1.44
10.79
23.70
37.15
46.69
48.02
38.46
17.97
-11.03
-44.53
-77.93
-106.78
-127.20
-136.18
-132.15
-115.66
-89.51
-58.27
-26.98
0.49
22.04
37.16
46.17
49.29
46.54
38.38
26.23
12.64
0.54
-7.76
-11.41
-10.95
-7.75
-3.18
1.89
7.11
12.24
16.87
20.44
22.44
22.73
21.52
19.13
15.70
11.25
5.92
0.30
-4.45
-6.86
-5.69
-0.49
8.04
18.16
27.57
34.05
36.28
34.25
29.19
23.05
17.69
14.14
12.48
12.11
12.24
12.32
12.12
11.42
9.81
6.85
2.42
-2.72
-6.97
-8.43
-5.68
1.22
10.40
18.77
23.17
22.00
16.03
8.21
2.19
0.57
3.61
9.27
14.43
16.73
15.69
12.75
10.07
9.18
10.05
11.34
11.46
9.52
5.86
1.66
-1.69
-3.30
-3.05
-1.39
0.79
2.47
2.77
1.21
-2.12
-6.54
-11.07
-14.78
-17.08
-17.57
-15.74
-10.98
-2.92
7.87
19.40
28.72
33.00
31.07
24.23
15.80
9.43
7.25
8.84
11.78
13.35
12.10
8.67
5.23
4.11
6.42
11.45
16.86
19.94
18.82
13.34
5.02
-3.69
-10.54
-14.37
-15.39
-14.92
-14.70
-16.03
-19.40
-24.35
-29.89
-35.15
-39.66
-43.39
-46.45
-48.67
-49.28
-47.17
-41.24
-31.35
-18.80
-6.27
2.98
6.44
3.55
-3.90
-12.56
-18.72
-19.79
-14.93
-4.81
9.06
24.95
41.11
55.58
66.08
70.56
67.83
58.22
43.74
27.35
12.01
-0.35
-9.29
-15.71
-20.98
-26.06
-30.91
-34.53
-35.89
-34.62
-31.53
-28.33
-26.59
-26.65
-27.14
-25.52
-19.38
-8.03
6.79
21.39
31.50
34.07
28.41
16.38
1.66
-11.56
-20.06
-22.38
-18.97
-11.69
-2.96
5.04
10.63
12.88
11.65
7.67
2.54
-1.67
-3.12
-1.05
3.79
9.39
13.29
13.68
10.03
3.29
-4.55
-11.23
-14.93
-14.83
-11.24
-5.53
0.20
3.79
3.69
-0.37
-7.14
-14.12
-18.53
-18.51
-13.97
-6.70
0.45
4.87
5.26
1.99
-3.29
-8.71
-13.11
-16.37
-19.01
-21.48
-23.52
-24.08
-21.84
-15.93
-6.60
4.61
15.33
23.03
26.02
23.99
18.06
10.21
2.42
-4.05
-8.76
-11.69
-12.75
-11.43
-7.23
-0.23
8.43
16.65
22.17
23.57
20.73
14.84
7.71
1.03
-4.09
-7.29
-8.78
-9.18
-9.10
-8.97
-8.84
-8.37
-7.10
-4.76
-1.51
2.03
5.09
6.98
7.31
5.93
2.97
-1.06
-5.13
-7.62
-6.79
-1.56
7.73
18.95
28.70
33.60
31.55
22.83
10.16
-2.39
-10.87
-13.06
-9.32
-2.36
3.92
6.07
2.60
-5.57
-15.64
-24.33
-29.38
-30.13
-27.34
-22.37
-16.41
-10.21
-4.24
0.98
4.72
6.42
5.86
3.35
-0.50
-5.27
-10.69
-16.45
-21.84
-25.48
-25.80
-21.85
-13.93
-3.86
5.66
12.16
14.28
12.26
7.76
3.02
0.09
0.06
2.84
7.36
12.15
16.03
18.47
19.62
20.01
19.94
19.29
17.69
14.79
10.68
5.98
1.64
-1.60
-3.62
-4.91
-6.29
-8.30
-10.65
-12.29
-11.89
-8.75
-3.36
2.59
6.97
8.30
6.50
2.98
-0.22
-1.42
-0.04
3.44
8.13
13.29
18.60
23.74
27.91
29.76
27.89
21.75
12.32
2.01
-6.30
-10.43
-9.88
-5.97
-0.94
3.27
5.85
7.30
8.60
10.24
11.68
11.70
9.36
4.92
0.07
-2.85
-2.09
2.54
9.45
15.98
19.64
19.15
14.85
8.29
1.60
-3.29
-5.16
-3.66
0.60
6.29
11.50
14.17
12.54
5.92
-4.63
-16.20
-24.74
-26.69
-20.63
-8.31
5.83
16.34
19.10
12.88
-0.33
-16.47
-31.19
-41.35
-45.67
-44.45
-38.90
-30.46
-20.54
-10.46
-1.44
5.38
9.12
9.29
5.99
0.24
-6.12
-10.87
-12.18
-9.33
-3.20
4.11
10.12
13.01
12.55
10.02
7.75
7.95
11.71
18.30
25.33
29.54
28.16
20.06
6.51
-9.10
-22.20
-28.62
-26.13
-15.32
0.56
16.62
27.82
30.49
23.20
7.10
-14.65
-37.60
-56.92
-68.33
-68.97
-58.05
-37.37
-11.09
15.02
35.12
44.96
42.96
30.37
10.49
-12.48
-34.29
-50.99
-59.13
-56.11
-41.20
-16.44
12.99
39.83
56.93
59.82
48.24
25.97
-0.89
-26.15
-45.05
-54.74
-54.03
-42.98
-23.03
2.69
29.25
50.65
61.49
58.63
42.35
16.44
-12.86
-38.41
-53.80
-54.87
-40.68
-14.28
17.65
46.49
64.24
66.36
53.46
30.86
6.31
-13.22
-23.99
-26.01
-21.84
-14.59
-6.51
1.19
7.84
12.73
15.25
15.55
14.86
15.14
17.91
23.11
28.84
32.14
30.58
23.75
13.53
3.19
-4.11
-6.85
-5.44
-1.81
1.63
2.70
-0.11
-7.61
-19.77
-35.45
-52.01
-65.71
-72.58
-70.22
-59.21
-43.53
-29.27
-21.96
-23.74
-32.15
-41.23
-44.45
-38.08
-22.92
-3.68
13.63
24.71
28.80
28.44
27.47
28.83
33.14
39.02
44.41
48.10
50.49
53.19
57.69
64.19
71.24
76.41
77.79
75.20
70.30
65.69
63.17
62.69
62.58
60.98
57.49
53.71
52.45
55.72
63.20
72.10
78.55
79.88
76.05
69.76
64.96
64.88
70.43
79.89
89.72
96.09
96.43
90.46
80.49
70.61
65.12
66.34
73.13
81.23
84.87
79.57
63.99
40.07
11.41
-18.28
-46.19
-70.06
-87.61
-96.98
-98.05
-93.83
-90.29
-94.32
-110.43
-138.61
-174.75
-212.83
-248.27
-279.71
-308.34
-335.26
-358.89
-374.08
-373.73
-352.21
-308.77
-249.41
-185.36
-129.12
-89.81
-68.73
-59.48
-51.66
-36.46
-10.88
21.35
52.62
75.89
88.21
91.27
89.51
87.38
87.18
88.74
90.31
90.29
88.43
85.58
83.00
81.31
79.97
77.49
72.33
63.84
52.89
41.79
33.49
30.51
33.72
41.72
51.12
57.76
58.38
52.09
40.86
28.61
19.45
15.82
17.40
21.38
24.06
22.60
16.43
7.58
-0.35
-3.93
-1.42
6.34
16.34
24.67
28.20
25.73
18.40
8.80
-0.04
-5.75
-7.09
-3.86
3.21
12.61
22.29
29.87
33.38
31.93
26.18
18.15
10.51
5.51
4.28
6.68
11.83
18.38
25.10
30.83
34.59
35.80
34.50
31.58
28.49
26.63
26.59
27.75
28.45
26.72
21.31
12.25
0.93
-10.50
-19.77
-25.16
-25.85
-22.15
-15.45
-8.12
-3.06
-2.80
-8.50
-19.11
-31.62
-42.38
-48.97
-51.80
-53.69
-57.91
-65.59
-74.34
-79.32
-76.41
-65.50
-51.20
-40.53
-38.64
-45.67
-56.84
-65.59
-67.53
-62.27
-52.33
-39.90
-24.84
-5.08
20.90
51.32
80.89
103.25
114.43
115.04
109.41
102.38
96.25
89.56
78.50
60.08
34.38
5.22
-21.34
-39.58
-46.49
-42.98
-33.16
-22.68
-16.33
-16.25
-21.20
-27.45
-30.77
-28.69
-21.91
-13.86
-8.85
-9.44
-14.92
-21.76
-25.66
-24.19
-18.30
-11.66
-8.50
-10.96
-17.78
-25.20
-29.04
-27.08
-19.98
-10.37
-0.93
7.33
15.16
24.07
34.16
43.07
46.74
41.90
28.71
11.69
-1.98
-6.21
0.70
15.15
30.17
39.12
38.73
30.02
16.88
3.28
-8.89
-20.40
-33.67
-50.89
-72.64
-97.67
-123.51
-147.44
-167.46
-182.92
-194.68
-204.92
-216.58
-232.56
-254.99
-284.28
-318.84
-354.64
-385.67
-404.91
-405.95
-384.38
-339.13
-273.07
-192.27
-104.54
-17.50
63.29
135.53
200.18
260.50
319.83
379.57
438.35
492.47
537.13
568.25
583.84
582.74
566.21
537.01
498.53
454.30
407.62
361.21
316.44
273.12
229.65
184.33
137.50
91.04
48.89
15.39
-6.95
-19.24
-26.12
-33.68
-46.29
-64.57
-85.02
-101.55
-108.38
-102.69
-86.25
-64.78
-45.62
-34.47
-32.97
-38.08
-42.81
-39.47
-23.23
5.41
40.32
71.27
87.42
80.94
49.67
-1.75
-63.03
-121.15
-164.37
-185.81
-185.02
-167.05
-139.68
-110.26
-83.60
-61.60
-44.11
-29.99
-17.47
-4.36
11.43
30.92
52.68
72.37
83.60
79.82
56.34
11.80
-51.08
-125.51
-201.40
-266.84
-310.63
-325.06
-308.15
-264.51
-203.96
-138.75
-80.09
-35.70
-8.97
0.56
-3.80
-17.04
-33.56
-48.19
-56.97
-57.61
-49.35
-32.60
-8.61
20.31
50.70
78.15
98.16
107.34
104.33
89.65
65.51
36.02
7.48
-11.79
-13.50
6.88
46.16
92.41
128.76
140.64
122.83
82.44
35.47
-0.81
-15.37
-7.01
17.37
47.50
74.36
92.38
99.36
95.29
81.87
62.60
42.51
27.32
21.38
26.16
39.70
57.64
74.78
86.41
88.85
79.98
59.75
30.60
-2.37
-32.58
-53.95
-63.12
-60.06
-47.18
-27.98
-5.93
15.35
31.61
38.15
31.71
12.87
-12.73
-35.56
-45.81
-37.35
-10.24
29.45
72.01
107.45
128.10
129.84
112.06
77.05
29.30
-25.64
-82.24
-136.10
-184.30
-224.78
-255.66
-274.89
-280.68
-272.24
-250.47
-217.85
-177.80
-133.72
-88.61
-45.00
-5.28
28.27
53.70
69.97
77.63
78.86
76.55
73.20
69.81
66.32
63.12
62.22
67.22
80.83
102.41
127.14
148.26
160.59
163.16
158.58
149.50
134.47
106.50
56.16
-22.07
-123.97
-234.18
-330.47
-392.22
-409.20
-384.75
-333.69
-275.81
-228.05
-199.00
-187.68
-186.21
-184.62
-176.00
-158.30
-133.48
-104.59
-73.22
-38.79
-0.01
43.01
87.41
128.04
159.73
179.56
188.08
188.78
186.51
185.12
186.02
187.98
188.10
183.58
173.20
157.81
139.95
122.68
108.28
97.52
89.53
82.55
74.87
65.63
55.06
44.20
34.37
26.49
20.78
16.75
13.55
10.40
6.84
2.87
-1.19
-4.89
-7.90
-10.10
-11.58
-12.57
-13.29
-13.89
-14.43
-14.92
-15.29
-15.52
-15.59
-15.51
-15.31
-15.00
-14.60
-14.08
-13.47
-12.80
-12.10
-11.40
-10.69
-9.99
-9.31
-8.65
-8.02
-7.44
-6.89
-6.38
-5.90
-5.46
-5.06
-4.68
-4.34
-4.02
-3.73
-3.48
-3.24
-3.03
-2.84
-2.66
-2.49
-2.34
-2.20
-2.08
-1.97
-1.86
-1.77
-1.68
-1.60
-1.52
-1.45
-1.38
-1.32
-1.26
-1.21
-1.16
-1.12
-1.08
-1.03
-1.00
-0.96
-0.92
-0.89
-0.86
-0.83
-0.81
-0.78
-0.75
-0.73
-0.71
-0.69
-0.66
-0.64
-0.62
-0.61
-0.58
-0.57
-0.55
-0.54
-0.52
-0.51
-0.49
-0.48
-0.47
-0.45
-0.44
-0.43
-0.41
-0.39
-0.37
-0.33
-0.30
-0.26
-0.20
-0.15
-0.08
0.01
0.12
0.24
0.36
0.43
0.45
0.42
0.39
0.42
0.55
0.78
1.05
1.27
1.36
1.29
1.12
0.95
0.93
1.12
1.52
2.04
2.51
2.79
2.84
2.72
2.62
2.79
3.40
4.42
5.67
6.77
7.40
7.38
6.94
6.52
6.75
7.99
10.23
12.92
15.20
16.26
15.80
14.28
12.79
12.59
14.51
18.43
23.20
27.14
28.76
27.45
24.06
20.38
18.35
19.04
21.74
24.37
24.35
19.63
9.72
-4.07
-19.78
-35.69
-50.46
-62.63
-70.23
-71.34
-65.13
-55.01
-47.00
-47.31
-58.51
-77.02
-94.01
-99.71
-89.02
-63.78
-32.30
-4.49
13.11
19.90
20.04
18.81
19.17
20.61
20.75
17.57
11.21
3.96
-1.08
-2.10
0.56
4.78
7.76
7.39
3.24
-3.36
-10.13
-14.96
-16.83
-16.21
-14.61
-13.88
-15.20
-18.70
-23.44
-27.86
-30.54
-30.72
-28.51
-24.68
-20.14
-15.67
-11.58
-7.80
-4.01
0.01
4.25
8.42
12.09
14.90
16.63
17.32
17.15
16.48
15.66
15.00
14.67
14.76
15.38
16.38
17.46
18.35
18.79
18.82
18.66
18.74
19.44
21.22
23.91
26.86
29.30
30.62
30.74
30.03
29.21
28.95
30.07
32.18
34.05
34.22
31.79
26.85
20.51
14.45
10.23
9.65
12.40
16.85
21.11
23.87
25.10
25.88
27.80
32.40
42.17
57.85
78.93
103.54
128.20
148.03
157.62
152.87
125.28
80.12
29.00
-15.61
-45.80
-60.17
-62.46
-58.23
-51.90
-45.43
-37.73
-29.05
-20.64
-14.48
-11.91
-12.78
-15.65
-18.86
-21.32
-22.36
-24.11
-28.50
-36.94
-49.39
-64.48
-80.14
-94.59
-107.06
-114.87
-119.99
-124.68
-131.06
-140.29
-151.74
-162.52
-167.87
-162.69
-143.69
-112.26
-73.73
-35.99
-6.38
11.22
17.33
15.73
10.91
6.06
1.69
-2.80
-7.96
-13.32
-17.43
-18.80
-16.83
-12.12
-5.87
0.29
5.68
10.58
15.79
22.12
29.73
37.90
45.38
50.66
52.48
50.51
45.28
37.90
29.55
21.07
12.66
4.40
-3.97
-12.74
-21.83
-30.91
-39.54
-47.44
-54.68
-61.75
-68.70
-75.70
-82.80
-89.72
-96.09
-101.59
-106.24
-110.41
-114.82
-119.34
-123.73
-127.37
-129.25
-128.18
-123.08
-113.01
-96.82
-78.65
-59.98
-41.34
-22.36
-2.07
20.64
46.32
74.66
104.49
134.14
162.85
190.35
217.05
244.03
272.79
305.00
341.99
384.00
429.26
474.05
512.36
537.43
544.08
530.65
499.69
456.98
409.52
363.18
321.94
287.35
259.12
236.02
216.36
198.21
179.61
158.99
135.34
108.90
80.88
53.27
28.48
8.63
-5.19
-13.59
-19.10
-25.73
-37.26
-55.59
-79.76
-106.27
-130.64
-149.34
-161.13
-167.52
-172.26
-179.56
-192.03
-209.75
-229.84
-247.61
-258.06
-257.85
-246.78
-229.28
-211.70
-199.27
-194.00
-194.43
-197.19
-199.20
-199.29
-198.19
-200.23
-208.68
-223.27
-239.91
-252.98
-257.77
-251.49
-233.10
-202.75
-166.41
-131.93
-107.07
-97.41
-105.30
-128.43
-159.56
-187.88
-202.40
-202.60
-194.22
-185.52
-183.02
-190.04
-206.21
-228.76
-253.69
-249.99
-201.03
-111.04
-3.84
95.41
174.20
233.16
277.85
309.79
334.51
346.18
338.46
310.43
268.04
219.12
170.44
127.93
93.28
66.40
38.64
2.59
-43.49
-94.91
-145.42
-188.03
-219.46
-238.71
-227.43
-182.11
-113.36
-39.94
23.15
59.30
73.81
72.13
58.44
36.46
10.22
-15.66
-34.41
-29.97
3.60
59.46
119.89
168.74
198.91
208.77
201.52
182.16
156.96
128.84
101.93
79.59
65.31
61.61
67.23
82.89
103.75
124.00
138.23
145.33
146.88
146.09
146.32
148.07
151.37
154.15
155.06
152.67
147.02
138.49
126.40
110.57
91.21
72.45
55.66
41.16
28.23
16.14
4.34
-10.31
-28.63
-48.01
-64.10
-75.18
-81.93
-86.88
-92.98
-102.52
-121.43
-151.26
-187.55
-222.62
-251.61
-273.56
-290.33
-304.97
-320.72
-347.04
-389.08
-444.01
-502.85
-555.84
-594.65
-613.06
-608.06
-539.55
-402.02
-229.11
-68.56
52.05
131.28
180.39
210.95
229.72
239.16
234.24
214.39
187.13
163.86
152.26
153.22
162.42
173.58
181.89
181.12
170.80
157.42
150.32
155.59
173.88
201.55
233.02
258.74
269.77
260.91
233.00
192.31
147.26
105.87
73.19
50.29
34.82
21.53
6.06
-12.41
-31.49
-47.41
-56.36
-55.78
-44.87
-25.82
-4.62
10.31
11.83
-2.18
-27.78
-53.94
-69.37
-68.69
-54.76
-36.24
-22.14
-16.63
-17.55
-19.04
-16.07
-7.64
3.02
11.86
16.58
18.03
19.12
22.45
28.47
34.62
36.24
29.46
13.57
-8.11
-29.25
-43.22
-45.85
-37.02
-20.35
-1.23
15.84
28.49
36.24
39.96
40.78
39.87
38.50
38.68
41.37
48.37
60.78
78.18
98.35
117.92
133.49
142.88
146.03
145.02
143.09
142.35
142.00
137.93
124.43
97.50
57.94
12.09
-30.26
-59.95
-72.22
-67.98
-52.79
-33.82
-17.53
-8.79
-11.23
-27.23
-57.01
-97.27
-141.00
-179.02
-203.41
-210.77
-203.23
-186.97
-168.66
-152.77
-140.47
-130.80
-122.15
-113.32
-103.20
-90.11
-71.76
-46.20
-13.16
25.49
66.62
107.53
147.04
184.85
219.98
249.40
268.12
271.29
256.94
227.13
187.23
143.40
99.76
57.08
13.26
-34.96
-89.81
-151.14
-215.92
-278.62
-332.07
-369.38
-385.70
-379.90
-354.81
-316.19
-270.53
-223.16
-177.04
-132.87
-90.43
-49.54
-10.92
24.02
53.96
77.76
94.61
103.79
105.20
99.15
86.36
67.77
45.14
21.83
2.38
-8.98
-10.87
-5.57
1.48
3.84
-2.47
-16.31
-31.14
-38.97
-35.42
-22.90
-8.19
2.63
8.27
13.27
25.49
51.20
91.23
140.43
185.88
213.18
215.65
198.44
172.77
146.40
120.94
95.32
69.96
47.82
33.38
31.01
38.91
51.66
62.55
66.42
61.58
49.84
34.95
21.51
13.78
13.90
21.00
32.56
45.38
57.18
67.57
77.77
90.20
106.47
125.81
144.82
158.66
163.25
157.01
141.00
117.36
87.96
53.24
12.28
-36.16
-92.57
-155.88
-222.86
-288.23
-345.22
-386.32
-404.78
-396.83
-363.20
-309.83
-246.67
-184.62
-132.38
-94.32
-70.31
-57.38
-52.13
-52.67
-58.79
-70.86
-87.72
-105.41
-117.64
-117.84
-102.33
-72.34
-33.83
5.03
37.53
61.12
77.83
92.34
108.85
128.30
147.92
162.61
167.90
162.59
149.59
134.37
122.15
115.47
113.22
112.33
109.96
104.96
97.89
89.61
79.64
65.44
43.60
12.00
-27.60
-69.04
-102.93
-119.39
-111.30
-77.08
-22.15
41.77
99.46
136.91
144.48
119.36
66.04
-4.75
-78.54
-140.20
-177.17
-182.33
-154.88
-102.09
-38.31
19.32
56.54
66.69
52.16
22.16
-11.50
-37.26
-48.54
-45.14
-31.22
-12.03
8.46
27.72
43.99
55.85
65.40
76.24
91.93
114.69
144.82
180.12
216.15
247.44
255.76
232.12
182.95
125.89
75.96
37.91
8.65
-17.11
-43.46
-71.73
-98.22
-118.44
-130.63
-134.69
-131.39
-121.57
-106.54
-88.48
-70.25
-53.40
-39.22
-28.89
-23.19
-20.67
-17.29
-7.90
10.67
37.16
66.56
90.65
100.97
92.48
66.26
29.71
-5.64
-29.09
-35.04
-24.61
-5.15
12.94
19.85
9.88
-17.41
-57.38
-103.21
-148.70
-189.37
-221.66
-242.18
-247.89
-236.91
-209.83
-168.61
-116.08
-55.74
8.33
71.88
130.32
178.10
209.58
213.20
182.45
124.55
59.45
7.90
-18.16
-16.80
6.18
40.76
77.66
108.90
128.66
133.65
123.34
100.39
69.95
36.02
4.87
-18.50
-31.91
-35.26
-31.10
-24.52
-21.36
-24.93
-35.51
-48.99
-60.05
-66.16
-66.41
-61.37
-52.87
-42.89
-33.26
-25.71
-22.06
-23.30
-32.11
-49.44
-74.33
-104.07
-134.43
-160.13
-176.24
-179.22
-159.02
-118.60
-69.63
-26.05
2.85
15.55
16.44
11.77
6.83
3.82
0.85
-3.46
-8.01
-11.23
-11.63
-8.87
-3.92
2.41
9.43
16.04
23.01
32.42
46.22
64.93
87.55
107.46
119.63
121.29
112.26
96.34
79.69
68.00
64.15
67.22
73.27
78.41
80.21
78.48
75.35
73.50
74.17
76.51
78.20
77.08
73.07
67.70
62.99
60.20
59.07
58.54
57.89
57.92
60.79
69.29
85.04
107.45
134.09
161.70
187.69
210.74
230.25
245.49
255.10
256.91
248.99
230.83
204.03
172.18
139.76
110.63
87.15
70.09
59.04
53.26
52.02
54.33
58.52
62.17
62.51
57.34
45.70
28.36
7.45
-14.20
-33.84
-49.64
-61.04
-68.88
-74.72
-80.15
-86.06
-92.35
-98.50
-104.32
-110.42
-118.24
-129.30
-143.66
-159.25
-172.14
-177.96
-173.76
-159.24
-136.59
-109.28
-80.60
-52.80
-27.07
-4.20
14.91
29.33
38.71
43.51
45.17
45.44
45.87
47.10
48.71
49.81
49.33
46.68
41.89
35.75
29.52
24.39
20.93
18.76
16.81
13.60
8.19
0.30
-9.75
-21.54
-34.52
-47.82
-59.99
-69.21
-74.34
-75.77
-75.55
-76.53
-80.83
-88.87
-99.16
-109.55
-118.59
-126.74
-136.07
-149.58
-169.91
-198.21
-233.29
-271.30
-305.79
-329.02
-334.13
-317.88
-282.24
-234.12
-182.51
-134.94
-94.89
-61.55
-31.87
-3.62
22.99
45.65
61.74
70.34
72.88
72.09
70.43
69.18
68.22
67.06
65.77
64.95
64.96
65.16
63.75
58.76
49.42
36.78
23.57
12.63
5.92
3.28
3.27
4.26
5.30
6.52
8.59
11.88
16.22
20.78
24.88
28.30
31.41
34.82
39.11
44.32
50.15
55.85
60.23
62.06
60.31
54.71
46.37
37.72
32.01
32.18
39.43
52.67
68.56
82.54
90.56
90.20
81.54
66.67
49.04
32.59
20.78
16.33
20.71
33.57
52.59
73.38
90.65
99.66
97.87
85.56
65.54
41.22
15.20
-12.00
-41.61
-75.19
-113.25
-153.21
-189.60
-215.95
-227.86
-224.85
-210.49
-190.47
-169.96
-152.01
-136.92
-123.64
-111.87
-103.27
-100.74
-105.93
-117.59
-131.17
-141.92
-146.03
-142.48
-133.43
-123.28
-116.45
-115.11
-118.64
-123.75
-129.07
-131.94
-128.28
-113.58
-85.35
-44.60
4.28
53.03
92.48
109.18
96.97
60.40
11.83
-36.26
-76.56
-107.57
-133.93
-160.86
-201.35
-261.38
-337.16
-418.93
-498.26
-570.37
-630.66
-675.90
-700.92
-714.28
-722.74
-727.37
-724.86
-713.44
-694.56
-669.28
-640.88
-534.18
-326.51
-57.21
202.78
405.71
542.10
615.48
654.96
678.35
697.84
708.82
709.13
703.00
698.24
698.49
700.34
698.33
676.70
630.63
559.99
477.31
399.14
337.50
295.08
267.71
250.96
240.35
235.88
231.81
223.44
209.01
190.14
169.47
149.34
132.54
120.18
113.98
110.58
105.80
96.13
79.96
57.37
29.82
0.37
-27.94
-48.58
-61.21
-67.85
-71.65
-75.26
-80.19
-86.56
-93.49
-100.15
-105.07
-106.65
-102.06
-88.21
-63.70
-30.98
2.99
28.61
37.91
28.75
5.60
-22.05
-44.64
-57.07
-60.19
-58.92
-58.51
-61.47
-66.49
-70.54
-70.81
-66.97
-61.36
-57.93
-60.29
-69.33
-82.44
-94.15
-98.90
-93.70
-79.25
-59.23
-37.57
-16.32
4.35
23.43
38.46
44.06
35.42
12.50
-17.81
-43.85
-54.73
-46.25
-22.35
5.07
24.26
29.44
22.36
9.56
-1.89
-7.89
-8.17
-4.30
2.20
11.08
23.33
39.90
60.63
83.95
107.43
127.65
143.77
156.42
167.28
177.38
185.48
187.83
179.80
158.63
125.63
86.72
49.95
22.26
6.78
2.17
4.15
8.38
12.36
15.78
19.57
24.15
28.55
30.99
30.15
25.90
19.46
12.60
6.73
1.87
-3.28
-10.65
-22.10
-38.00
-57.52
-79.01
-100.20
-119.85
-136.37
-147.80
-152.00
-147.67
-135.46
-118.35
-100.97
-86.64
-76.75
-69.92
-63.42
-55.17
-45.21
-35.55
-28.73
-25.94
-26.10
-26.89
-25.92
-22.23
-16.55
-10.50
-5.46
-1.85
0.93
4.21
8.66
14.51
21.19
27.65
32.97
36.69
38.98
40.53
42.18
44.45
47.39
50.59
53.37
55.06
55.21
53.73
50.79
46.65
41.42
35.15
27.82
19.58
10.71
1.58
-7.22
-15.14
-21.67
-26.53
-29.57
-30.81
-30.01
-27.21
-22.66
-16.66
-9.69
-2.39
4.58
10.73
15.80
20.38
24.84
29.48
34.55
39.90
45.09
49.57
52.98
55.37
57.79
60.98
65.27
70.71
76.35
80.60
81.74
78.56
67.10
48.65
26.37
3.83
-15.81
-31.28
-42.95
-51.82
-58.83
-64.10
-66.28
-64.13
-56.87
-43.03
-21.79
6.76
41.10
77.65
110.69
134.12
142.80
132.06
105.59
72.80
44.50
28.09
24.97
31.30
41.23
49.69
54.41
56.14
56.03
54.56
51.42
45.98
38.02
28.09
17.05
6.03
-4.07
-12.86
-20.39
-26.97
-33.25
-40.19
-49.17
-62.57
-80.22
-103.79
-135.34
-175.52
-222.25
-269.72
-309.29
-332.17
-333.03
-311.98
-274.82
-229.97
-184.70
-143.24
-106.00
-70.66
-34.36
4.64
46.57
90.29
134.32
177.39
217.27
251.12
276.21
290.36
291.89
280.31
256.57
223.75
187.30
152.82
125.13
107.17
101.03
106.14
119.28
135.16
146.24
152.38
156.48
161.14
167.72
173.96
173.76
160.82
131.19
84.81
25.83
-39.38
-102.52
-154.23
-186.32
-197.50
-192.71
-181.75
-175.26
-180.34
-198.44
-224.94
-251.50
-270.61
-282.87
-293.98
-311.22
-339.17
-378.12
-425.89
-479.46
-535.73
-569.41
-561.10
-503.21
-405.19
-287.82
-172.25
-72.90
4.44
60.91
101.36
127.37
139.01
136.16
120.72
97.32
72.98
55.16
49.07
56.03
69.59
82.52
89.34
88.62
82.41
75.73
74.59
82.84
101.21
125.83
151.36
173.54
188.85
193.06
183.58
160.99
129.02
94.67
65.87
47.50
44.35
57.18
80.56
108.04
135.75
162.95
191.97
225.70
258.42
282.49
301.23
312.30
307.08
282.73
241.36
189.22
134.08
82.35
38.74
4.60
-24.78
-50.73
-71.10
-82.85
-84.37
-76.60
-63.17
-47.71
-33.13
-21.99
-13.96
-6.50
2.67
13.74
25.73
36.66
45.30
51.13
53.41
52.83
51.58
50.10
46.53
38.99
25.96
7.05
-17.03
-45.45
-76.39
-107.56
-136.35
-162.54
-185.55
-204.56
-218.42
-225.95
-227.16
-222.53
-213.07
-187.88
-145.92
-90.82
-29.13
32.46
89.05
136.74
173.70
199.82
218.32
230.29
236.74
238.31
236.51
233.29
228.77
222.63
215.13
210.24
206.73
203.04
197.69
190.21
180.45
165.75
143.31
111.56
74.91
32.46
-16.51
-73.51
-137.97
-194.56
-230.16
-238.31
-245.37
-260.00
-290.22
-328.12
-371.01
-416.30
-461.67
-508.20
-558.33
-614.58
-649.04
-646.31
-602.52
-526.18
-428.46
-318.22
-203.97
-94.57
0.81
78.14
131.67
161.09
170.35
167.55
160.32
152.18
143.35
133.05
123.48
113.90
104.14
93.80
83.62
74.28
65.60
56.84
47.90
40.59
34.96
31.75
30.76
34.19
43.73
59.93
81.45
106.51
133.97
161.79
188.73
214.15
238.16
260.57
281.41
299.72
314.76
325.27
328.11
318.55
291.46
243.52
175.09
91.78
1.67
-85.59
-161.83
-222.55
-266.78
-295.78
-311.35
-315.30
-299.48
-261.51
-203.73
-133.05
-58.92
10.01
68.30
114.21
148.81
175.05
194.34
207.42
214.43
215.07
209.32
197.81
183.59
167.09
149.06
128.52
104.27
74.84
38.92
-3.84
-50.98
-99.07
-145.72
-188.96
-227.66
-259.37
-279.84
-284.10
-268.85
-235.01
-188.76
-140.10
-98.56
-70.59
-57.40
-55.70
-60.44
-67.32
-74.05
-80.39
-87.05
-93.92
-100.64
-106.59
-111.27
-114.77
-117.13
-118.25
-117.49
-114.61
-107.15
-93.21
-72.46
-46.61
-19.78
3.11
18.46
25.72
27.43
27.98
30.73
36.43
43.47
48.79
50.36
48.71
46.77
48.32
56.28
71.26
89.51
108.59
126.47
141.95
154.34
163.33
168.59
169.62
166.01
157.90
146.44
133.07
119.42
106.84
96.11
87.21
79.58
72.33
64.75
56.89
49.06
41.74
35.33
30.09
25.89
22.37
19.09
15.73
12.40
9.24
6.43
3.99
2.05
0.55
-0.65
-1.69
-2.60
-3.22
-3.52
-3.54
-3.55
-3.53
-3.46
-3.26
-2.82
-2.02
-0.83
0.39
1.73
1.50
-1.12
-6.40
-13.97
-22.82
-31.68
-39.30
-44.99
-48.68
-50.80
-51.54
-50.79
-48.02
-42.26
-33.52
-21.43
-7.10
7.43
19.61
27.80
31.76
32.58
32.40
33.16
36.03
40.85
47.05
53.75
60.21
65.22
66.01
60.60
47.60
28.99
9.64
-4.60
-9.90
-6.45
1.50
7.71
8.24
2.39
-7.17
-16.91
-24.76
-30.98
-37.07
-43.89
-50.40
-53.68
-50.94
-40.48
-22.44
0.89
25.20
45.24
55.95
53.82
39.63
17.72
-5.08
-22.18
-29.82
-28.26
-20.84
-11.65
-3.40
3.83
11.29
20.11
29.95
38.94
44.71
45.65
41.70
34.20
25.08
15.79
6.86
-2.20
-11.89
-22.72
-34.53
-46.30
-56.55
-64.03
-68.18
-69.31
-68.31
-66.70
-65.20
-64.46
-64.66
-65.61
-67.04
-68.73
-70.41
-71.67
-72.43
-71.87
-69.58
-65.35
-59.03
-50.83
-40.80
-28.86
-14.83
1.27
19.15
38.17
55.87
70.51
80.16
83.72
81.22
73.67
62.63
49.51
35.13
19.81
3.71
-13.72
-32.66
-53.07
-74.56
-95.86
-113.86
-124.82
-123.54
-107.57
-79.58
-46.77
-18.27
-1.32
1.70
-6.13
-18.48
-28.71
-32.42
-28.06
-15.89
2.89
26.12
50.40
70.95
82.63
82.63
71.40
52.44
30.42
9.38
-8.36
-22.22
-32.54
-39.75
-44.39
-47.27
-49.54
-52.23
-55.68
-59.63
-62.87
-64.13
-61.93
-55.83
-46.27
-34.56
-22.31
-10.90
-1.25
6.37
12.14
16.82
20.94
24.83
28.67
32.50
36.45
40.66
45.46
49.86
54.59
59.78
65.12
70.00
73.81
75.99
76.27
74.70
71.57
67.64
63.47
59.47
55.80
52.46
49.26
46.01
42.64
39.18
36.05
33.65
32.24
31.87
32.27
32.87
33.03
33.06
32.11
30.19
27.66
24.78
21.64
17.96
13.24
6.95
-0.72
-8.93
-16.13
-20.57
-20.87
-16.49
-8.03
3.02
14.79
25.33
34.41
42.34
49.66
56.93
64.71
73.41
83.76
94.26
102.42
104.73
97.42
78.32
48.71
13.56
-20.02
-45.75
-60.32
-64.20
-60.65
-53.78
-46.44
-39.57
-32.79
-25.69
-18.82
-13.50
-10.70
-10.54
-11.91
-13.29
-13.06
-10.24
-4.76
2.65
11.18
20.41
30.45
42.05
55.52
70.96
87.95
105.48
122.19
136.93
149.03
158.54
166.23
172.49
177.72
182.08
185.53
187.66
187.94
185.25
177.77
168.04
155.97
140.44
120.59
96.54
69.68
42.67
18.29
-0.94
-12.61
-17.03
-16.14
-12.81
-10.30
-11.47
-18.23
-31.84
-51.43
-72.40
-90.23
-100.94
-101.59
-91.28
-71.66
-46.45
-22.82
-6.64
2.88
6.14
2.52
-7.53
-23.20
-43.46
-66.82
-96.38
-132.93
-166.98
-194.00
-215.87
-234.90
-253.61
-273.93
-296.76
-329.28
-373.49
-413.69
-440.39
-453.88
-455.75
-449.17
-438.16
-426.76
-428.27
-450.39
-478.17
-503.53
-528.25
-551.82
-572.54
-588.46
-534.49
-386.40
-252.78
-169.41
-111.32
-71.08
-42.77
-21.63
-4.14
11.79
17.09
6.38
-4.58
-8.43
-8.98
-8.86
-9.07
-8.67
-4.82
-1.39
0.77
15.60
48.36
93.65
145.63
199.00
249.73
295.60
331.30
355.03
376.27
400.93
429.36
461.95
498.58
538.09
577.59
610.21
628.86
632.27
620.16
594.12
560.40
527.25
501.03
483.06
468.20
448.45
418.72
377.80
328.83
277.86
230.07
186.86
145.37
101.10
51.15
-3.46
-57.87
-105.47
-140.54
-160.02
-163.50
-152.59
-129.87
-98.85
-63.87
-29.92
-1.82
16.96
25.16
24.02
16.38
5.44
-6.21
-16.86
-25.45
-31.22
-33.84
-33.81
-32.75
-33.31
-38.19
-49.30
-67.18
-91.09
-119.69
-151.41
-184.62
-216.76
-244.28
-262.99
-269.41
-262.37
-243.61
-217.46
-189.13
-162.79
-140.78
-124.04
-113.31
-110.11
-116.37
-132.80
-156.99
-182.84
-201.92
-206.46
-192.71
-162.62
-123.71
-86.50
-60.72
-52.41
-62.17
-85.48
-115.05
-143.21
-163.82
-173.15
-170.01
-154.84
-130.07
-100.19
-71.87
-52.88
-49.28
-62.19
-85.71
-107.88
-115.06
-98.10
-56.94
-1.23
53.46
91.58
103.31
86.81
47.82
-3.14
-53.90
-92.89
-111.01
-102.84
-67.79
-10.82
58.18
126.74
182.69
217.22
226.60
211.84
176.91
126.73
65.71
-1.92
-71.17
-135.52
-187.24
-219.36
-228.14
-214.95
-185.83
-149.20
-112.29
-78.87
-48.40
-17.92
15.79
53.86
94.78
135.35
172.10
202.49
224.90
238.18
241.28
233.76
216.55
193.01
168.40
148.05
134.89
127.56
120.90
108.27
85.14
51.66
13.31
-21.11
-42.61
-44.67
-24.50
17.11
76.17
145.90
217.38
280.23
324.59
343.22
333.35
296.93
239.74
169.11
92.12
14.66
-58.49
-122.65
-172.96
-204.68
-215.10
-205.20
-180.68
-150.82
-125.58
-111.96
-111.11
-118.09
-124.33
-121.89
-107.13
-82.04
-52.65
-25.86
-6.25
5.08
9.18
6.57
-4.22
-25.90
-60.28
-105.69
-156.25
-203.26
-237.74
-253.20
-246.60
-218.53
-172.52
-114.32
-51.25
8.49
56.46
85.45
91.23
74.34
40.57
0.12
-34.88
-54.19
-53.16
-35.15
-11.25
3.54
-3.79
-38.81
-96.99
-165.70
-228.79
-272.60
-290.02
-280.94
-250.19
-203.68
-145.68
-77.90
-0.94
83.83
172.84
259.81
337.36
398.92
440.87
463.43
469.66
462.81
445.51
419.56
386.78
350.53
316.56
292.08
282.86
290.19
307.82
325.85
334.76
328.54
306.18
271.18
229.76
188.11
150.34
114.73
79.39
44.20
10.02
-22.90
-55.25
-87.74
-120.37
-152.63
-188.52
-228.94
-270.72
-309.44
-343.24
-373.67
-404.26
-438.62
-478.43
-528.39
-585.04
-636.26
-667.79
-671.43
-648.06
-605.81
-555.73
-466.48
-335.74
-188.90
-57.83
42.25
111.97
157.06
183.02
194.87
197.79
190.36
174.90
158.17
146.99
143.43
145.01
147.61
148.32
146.65
138.74
126.01
115.26
113.69
124.16
144.33
167.95
187.44
194.92
180.34
140.75
82.75
18.69
-38.07
-77.09
-93.46
-87.99
-67.04
-41.56
-18.20
3.63
27.43
56.14
91.42
127.69
156.41
176.19
180.70
159.45
110.14
37.28
-48.47
-133.15
-203.17
-242.43
-246.29
-227.02
-202.70
-184.67
-174.99
-169.52
-163.51
-155.23
-146.23
-140.16
-139.88
-143.73
-146.05
-141.56
-127.41
-103.34
-74.29
-44.43
-17.43
4.65
23.04
41.32
62.67
88.48
118.19
150.14
183.27
216.89
250.83
285.40
320.18
352.34
377.18
389.80
387.32
370.39
342.64
309.21
275.31
244.62
218.29
195.35
173.97
152.50
130.48
108.27
86.71
66.85
49.57
35.29
23.94
14.95
7.37
0.25
-7.14
-14.97
-22.88
-30.02
-35.49
-38.72
-39.68
-38.77
-36.61
-33.93
-31.50
-30.08
-30.10
-31.65
-34.04
-36.07
-36.62
-35.30
-32.80
-30.58
-29.87
-31.10
-33.55
-35.77
-36.43
-35.13
-32.42
-29.44
-27.07
-25.60
-24.78
-24.12
-23.48
-23.18
-23.58
-24.72
-25.96
-26.34
-25.26
-22.73
-19.59
-16.89
-15.31
-14.98
-15.40
-16.07
-16.89
-18.08
-19.92
-22.38
-24.99
-27.23
-28.65
-29.17
-28.96
-27.92
-25.45
-20.72
-13.31
-3.59
7.00
16.59
23.57
27.44
29.20
30.72
34.10
40.40
49.32
59.24
68.12
74.63
78.65
81.51
85.15
91.16
100.07
111.16
122.73
132.82
139.88
143.49
144.50
144.80
146.81
152.75
164.05
180.85
202.08
225.72
249.36
270.76
288.03
300.03
306.20
306.48
301.21
290.80
275.51
255.29
229.91
199.07
162.90
122.16
78.18
32.74
-12.60
-56.84
-99.97
-142.70
-185.76
-229.14
-271.48
-310.18
-342.50
-366.58
-382.59
-392.90
-401.25
-411.37
-425.94
-446.23
-472.30
-503.20
-536.88
-569.90
-597.33
-613.55
-613.75
-595.41
-558.93
-507.07
-443.12
-369.79
-289.37
-205.25
-123.68
-54.40
-8.69
4.54
-16.98
-66.41
-128.85
-185.82
-221.74
-229.26
-211.48
-179.40
-146.33
-121.69
-107.54
-99.00
-88.29
-69.30
-40.79
-5.97
30.30
64.98
98.80
135.73
180.62
236.16
300.92
368.67
429.90
474.63
495.32
489.17
458.90
411.17
353.94
293.59
233.26
173.18
112.29
49.94
-13.62
-78.06
-144.04
-213.21
-286.59
-362.43
-435.19
-496.64
-538.99
-557.91
-554.59
-534.73
-505.87
-474.31
-443.40
-413.54
-383.55
-352.16
-318.62
-282.46
-243.11
-199.76
-151.94
-100.18
-46.29
7.04
57.05
101.94
141.48
176.80
209.98
243.34
278.79
317.56
359.66
403.47
445.52
481.01
505.12
514.66
509.37
491.82
466.23
436.43
404.64
371.35
336.27
299.61
263.00
229.12
200.53
178.60
162.79
151.04
140.78
129.74
116.46
100.18
80.60
58.01
33.54
9.47
-10.87
-23.68
-26.34
-18.58
-3.55
13.06
24.65
26.46
16.95
-2.14
-27.20
-54.96
-83.46
-112.34
-141.61
-170.46
-196.34
-215.37
-223.15
-215.69
-190.43
-146.30
-84.47
-9.24
71.64
147.58
207.51
243.24
252.07
237.69
208.33
173.28
139.57
110.22
84.65
60.62
36.36
11.65
-12.63
-35.37
-56.34
-76.28
-96.30
-117.15
-138.74
-159.96
-179.02
-194.27
-204.47
-209.40
-209.87
-207.44
-204.27
-202.45
-203.37
-207.26
-212.79
-217.34
-217.56
-210.31
-193.56
-166.69
-130.71
-87.98
-42.21
2.16
40.71
70.29
90.10
102.29
111.06
120.91
134.77
152.81
172.86
191.73
206.84
217.03
222.52
223.76
221.01
214.00
202.59
187.44
170.38
153.88
140.23
130.59
124.56
120.42
116.12
109.95
101.04
89.50
76.19
62.59
50.34
40.75
34.40
30.84
28.62
25.94
21.50
15.03
7.50
0.39
-5.13
-8.79
-11.24
-13.46
-15.79
-17.86
-18.60
-17.22
-13.94
-10.00
-7.26
-7.30
-10.77
-16.93
-24.05
-30.10
-33.29
-32.69
-28.59
-22.25
-15.60
-10.46
-7.67
-6.81
-6.54
-5.41
-2.73
0.98
4.17
5.24
3.41
-0.83
-6.21
-11.18
-14.64
-16.33
-16.55
-15.91
-15.01
-14.27
-14.02
-14.30
-14.92
-15.53
-15.87
-16.00
-16.16
-16.88
-18.43
-20.66
-23.04
-24.68
-24.87
-23.45
-20.82
-17.71
-14.99
-13.41
-13.45
-15.26
-18.76
-23.50
-28.57
-32.78
-34.96
-34.62
-31.93
-27.59
-22.47
-17.32
-12.70
-9.15
-7.40
-8.04
-11.09
-15.56
-19.61
-21.36
-19.67
-14.76
-7.80
-0.41
6.09
10.86
13.37
13.10
9.89
4.22
-2.26
-7.25
-8.89
-6.75
-2.27
2.06
3.97
2.50
-1.46
-6.17
-9.98
-12.23
-13.35
-14.24
-15.46
-17.00
-18.46
-19.41
-19.84
-20.14
-20.70
-21.63
-22.81
-24.04
-25.19
-26.46
-28.03
-29.92
-31.84
-33.27
-33.59
-32.57
-30.36
-27.32
-23.98
-20.59
-17.34
-14.06
-10.47
-6.21
-1.09
4.60
10.11
14.48
17.01
17.80
17.80
18.35
20.40
23.80
27.41
29.61
29.30
26.54
22.57
19.08
17.46
18.08
20.14
22.16
22.74
21.08
17.61
13.49
10.02
8.05
7.69
8.49
9.64
10.59
11.07
11.02
10.34
8.82
6.28
2.70
-1.46
-5.48
-8.52
-10.19
-10.61
-10.48
-10.57
-11.42
-13.03
-14.79
-15.81
-15.33
-13.07
-9.40
-5.06
-0.90
2.69
5.53
7.84
9.75
11.21
11.99
11.85
10.90
9.53
8.33
7.88
8.45
9.76
11.19
12.03
11.71
10.30
8.15
5.73
3.38
0.91
-2.12
-6.22
-11.52
-17.72
-24.08
-29.65
-33.62
-35.43
-34.90
-32.32
-28.22
-23.30
-18.20
-13.26
-8.47
-3.88
0.38
3.69
5.35
4.71
1.68
-3.03
-8.36
-13.02
-16.14
-17.17
-15.95
-12.36
-6.52
0.80
8.41
14.30
16.80
15.24
10.62
5.20
1.58
1.13
3.55
7.04
9.48
9.71
8.00
5.79
4.49
4.56
5.52
6.29
6.34
5.75
5.24
5.29
5.80
6.04
5.14
2.83
-0.55
-4.31
-7.86
-10.84
-13.14
-14.56
-14.69
-13.20
-10.33
-6.93
-4.02
-2.40
-1.80
-1.45
-0.51
1.17
2.84
3.53
2.59
0.36
-2.00
-3.31
-2.86
-0.73
2.50
6.06
9.13
10.89
10.70
8.23
3.93
-0.90
-4.36
-4.98
-2.48
1.93
6.18
8.39
7.84
5.38
2.77
1.63
2.83
5.95
9.69
12.63
13.92
13.42
11.83
10.02
8.54
7.38
6.25
4.88
3.26
1.77
0.80
0.55
0.77
0.93
0.66
-0.02
-0.75
-1.16
-1.11
-0.80
-0.59
-0.70
-0.88
-0.71
0.29
2.37
5.61
9.86
14.79
20.19
25.61
30.68
35.20
39.12
42.58
45.86
49.17
52.47
55.56
58.24
60.32
61.82
62.55
62.23
60.55
57.27
52.37
46.34
39.85
33.73
28.73
25.27
23.49
23.19
24.13
26.00
28.63
31.65
34.67
37.17
38.52
38.29
36.22
32.52
27.65
22.24
16.56
10.34
2.77
-7.27
-20.27
-35.76
-51.82
-65.67
-74.59
-77.42
-75.04
-69.97
-65.15
-62.18
-60.97
-60.15
-58.46
-55.84
-53.58
-53.50
-56.77
-63.15
-70.98
-78.34
-83.86
-87.37
-89.67
-91.81
-94.62
-98.37
-102.86
-107.51
-111.60
-114.28
-114.71
-112.37
-107.10
-99.32
-89.47
-78.19
-65.75
-52.23
-37.61
-22.05
-6.21
8.79
21.61
31.07
36.40
37.63
35.48
31.04
25.45
19.60
13.93
8.59
3.72
-0.64
-4.43
-7.87
-11.60
-16.28
-22.21
-28.85
-34.70
-38.03
-37.67
-33.61
-27.00
-19.62
-13.04
-8.05
-4.56
-1.90
0.74
3.86
7.92
13.07
19.31
26.50
34.08
41.23
47.06
51.05
53.14
53.79
53.74
53.74
54.45
56.15
58.83
62.02
64.89
66.46
65.84
62.57
56.99
50.25
43.71
38.45
34.64
31.53
27.88
23.15
17.78
13.20
10.78
10.69
11.66
11.67
9.31
4.63
-0.63
-4.43
-5.67
-4.86
-3.67
-3.60
-4.93
-6.56
-6.67
-4.19
0.54
5.85
9.66
10.70
9.20
6.68
5.00
5.32
7.62
10.63
12.81
13.24
11.89
9.70
7.63
6.23
5.28
4.18
2.49
0.31
-1.83
-3.28
-3.66
-3.12
-1.93
-0.55
0.52
0.69
-0.50
-3.35
-7.51
-12.20
-16.40
-19.43
-21.21
-22.19
-23.04
-24.05
-25.24
-26.49
-27.82
-29.59
-32.34
-36.42
-41.84
-48.08
-54.34
-59.78
-63.95
-66.72
-68.40
-69.31
-69.64
-69.04
-66.96
-63.22
-58.38
-53.74
-50.84
-50.61
-52.73
-55.74
-57.71
-57.69
-55.92
-53.78
-52.89
-53.85
-55.94
-57.45
-56.81
-53.57
-48.92
-45.10
-44.37
-47.57
-53.76
-60.35
-64.33
-63.49
-57.39
-47.18
-34.94
-22.68
-11.85
-3.30
2.71
6.70
10.59
17.95
33.42
61.14
102.49
155.02
212.53
266.79
310.20
338.35
351.13
352.42
348.10
343.45
341.21
340.87
339.01
331.30
314.40
286.99
249.39
202.79
148.90
90.15
30.68
-23.57
-65.96
-91.18
-97.25
-86.95
-66.67
-44.24
-26.06
-15.48
-12.99
-16.80
-23.77
-30.39
-34.10
-33.85
-30.37
-25.77
-22.47
-22.57
-26.78
-34.17
-42.64
-50.65
-57.64
-63.51
-68.40
-69.43
-63.27
-49.63
-32.49
-18.83
-15.97
-27.32
-52.48
-87.07
-124.53
-159.43
-189.22
-214.03
-231.23
-240.72
-244.40
-244.24
-241.70
-237.59
-232.41
-225.43
-213.58
-192.20
-158.36
-113.06
-59.75
-3.93
48.14
90.22
114.79
116.43
97.43
73.14
53.27
42.86
41.89
49.21
61.81
75.85
88.66
99.51
108.13
113.14
113.95
110.26
102.30
90.54
76.00
60.69
46.86
35.90
27.13
19.81
13.62
8.64
4.76
1.93
0.34
0.21
1.45
2.98
4.08
4.41
3.82
2.16
-0.79
-5.01
-10.24
-15.98
-21.91
-27.42
-31.97
-35.19
-37.16
-38.26
-38.73
-38.89
-38.94
-39.00
-38.99
-38.53
-37.34
-35.09
-31.65
-26.97
-20.95
-13.56
-5.05
3.88
12.16
18.78
23.21
25.77
27.49
29.36
31.51
33.06
32.74
29.86
24.90
19.42
15.03
12.56
11.53
10.76
9.10
6.19
2.52
-1.10
-4.16
-6.62
-8.88
-11.14
-13.28
-14.65
-14.90
-14.14
-13.12
-12.86
-13.95
-16.18
-18.61
-19.84
-18.92
-15.78
-11.16
-6.54
-3.19
-1.56
-1.09
-0.53
1.32
4.76
8.99
12.40
13.45
11.63
7.77
3.64
1.08
1.15
3.58
7.25
10.88
13.70
15.74
17.40
19.02
20.53
21.43
20.93
18.41
13.72
7.35
0.45
-5.59
-9.61
-11.04
-10.12
-7.91
-5.74
-4.73
-5.73
-8.72
-13.28
-18.51
-23.48
-27.59
-30.65
-32.91
-34.96
-37.25
-39.64
-41.46
-41.68
-39.39
-34.36
-26.97
-18.12
-8.80
0.10
7.96
14.45
19.05
21.43
21.38
19.36
16.42
13.99
13.39
15.02
18.13
20.98
21.87
19.72
14.88
8.84
3.67
0.96
1.26
3.95
7.81
11.73
15.05
17.71
19.83
21.27
21.68
20.47
17.36
12.63
7.21
2.13
-1.82
-4.33
-5.88
-7.12
-8.82
-11.29
-14.60
-18.63
-23.06
-27.37
-30.79
-32.48
-31.69
-28.30
-22.87
-16.67
-10.90
-6.28
-2.70
0.54
4.08
7.90
11.31
13.28
13.21
11.41
8.91
6.86
5.98
6.44
8.36
11.91
17.37
24.51
32.07
37.74
39.19
35.33
27.26
17.80
10.27
6.82
7.49
10.47
13.26
14.10
12.71
9.88
6.90
4.41
2.37
0.11
-3.03
-7.16
-11.70
-15.72
-18.55
-20.24
-21.66
-23.81
-26.91
-29.99
-30.95
-27.70
-19.43
-7.50
5.12
14.99
20.15
20.66
18.55
16.24
15.26
15.46
15.54
14.32
11.65
8.59
6.83
7.43
10.25
13.88
16.56
17.17
15.73
13.30
11.30
10.74
11.64
13.12
13.83
12.61
9.21
4.41
-0.03
-2.34
-1.54
1.88
6.17
9.10
9.09
6.18
1.72
-2.53
-5.37
-6.90
-8.11
-10.00
-12.67
-15.33
-16.83
-16.53
-14.47
-11.39
-7.84
-3.79
1.23
7.46
14.27
20.33
23.97
24.13
20.88
15.39
9.40
4.32
1.02
-0.38
-0.26
0.84
2.52
4.71
7.55
11.35
15.94
20.51
23.69
24.07
20.93
14.81
7.46
1.08
-2.69
-3.51
-2.25
-0.46
0.51
0.18
-1.18
-2.80
-3.98
-4.37
-4.05
-3.31
-2.48
-1.82
-1.22
-0.57
0.20
1.03
1.70
1.97
1.93
2.10
3.02
5.16
8.50
12.70
17.06
20.96
23.93
25.50
25.22
22.79
18.42
12.87
7.33
2.96
0.22
-1.30
-2.62
-4.51
-6.93
-8.94
-9.30
-7.30
-3.47
0.67
3.49
4.19
3.16
1.70
1.12
1.82
2.93
3.04
1.05
-3.10
-8.49
-13.72
-17.98
-21.39
-24.64
-28.07
-30.93
-31.57
-28.36
-20.78
-10.10
1.04
9.95
14.92
15.97
14.43
11.97
9.86
8.47
7.70
7.33
7.46
8.16
9.18
9.94
9.65
8.01
5.82
4.50
5.19
8.11
12.05
14.94
14.93
11.52
5.92
0.33
-3.28
-4.13
-2.96
-1.37
-0.93
-2.36
-5.40
-9.19
-12.91
-15.95
-18.03
-19.37
-20.37
-21.43
-22.75
-24.14
-24.84
-23.77
-20.05
-13.46
-4.82
3.98
10.79
14.09
13.39
9.49
3.88
-1.91
-6.80
-10.42
-12.77
-13.97
-13.99
-12.48
-9.03
-3.33
4.36
13.11
21.44
27.85
30.98
30.15
25.53
18.07
9.17
0.45
-6.60
-10.92
-12.02
-10.12
-6.08
-1.19
3.26
6.31
7.48
6.94
5.14
2.57
-0.48
-3.85
-7.39
-10.97
-14.09
-15.97
-15.84
-13.21
-8.21
-1.60
5.28
10.93
14.00
14.03
11.41
7.41
3.60
1.21
0.50
0.72
0.70
-0.53
-2.93
-5.44
-6.45
-4.83
-0.64
4.85
9.85
13.02
13.88
12.90
10.95
8.77
6.94
5.58
4.82
4.58
4.81
5.23
5.58
5.58
5.06
3.96
2.16
-0.28
-3.14
-5.94
-8.09
-9.22
-9.54
-9.82
-11.00
-13.45
-16.60
-19.19
-19.86
-17.92
-13.90
-9.26
-5.64
-3.81
-3.47
-3.33
-2.07
0.91
5.26
9.71
13.17
15.06
15.88
16.56
18.00
20.18
22.07
22.25
19.56
14.13
7.37
1.48
-1.60
-0.88
3.24
9.39
15.60
20.15
21.99
20.89
17.26
11.95
5.95
0.14
-4.84
-8.85
-12.01
-14.52
-16.49
-17.63
-17.42
-15.60
-12.38
-8.58
-5.19
-3.04
-2.30
-2.49
-2.94
-3.19
-3.34
-3.75
-4.61
-5.53
-5.88
-5.12
-3.49
-1.84
-1.20
-2.03
-3.93
-5.62
-5.76
-3.43
1.14
6.96
12.72
17.24
19.80
20.19
18.66
15.75
12.23
9.10
6.94
5.96
5.82
6.01
6.06
5.75
5.12
4.18
3.02
1.81
0.88
0.74
1.69
3.63
5.97
7.66
7.79
6.18
3.39
0.34
-2.36
-4.56
-6.67
-8.96
-11.14
-12.56
-12.61
-11.38
-9.65
-8.69
-9.48
-12.23
-16.19
-20.03
-22.39
-22.48
-20.37
-16.81
-12.88
-9.76
-8.26
-8.71
-10.62
-12.84
-13.75
-12.19
-8.07
-2.42
2.78
5.86
6.17
4.51
2.51
1.75
2.75
4.83
6.69
7.43
7.24
7.16
8.31
11.14
14.94
18.35
20.09
19.71
17.68
15.06
12.81
11.41
10.52
9.30
7.00
3.27
-1.30
-5.75
-9.00
-10.59
-10.93
-10.71
-10.62
-10.87
-11.26
-11.66
-12.43
-14.15
-17.23
-21.12
-24.29
-25.07
-22.31
-16.39
-8.88
-1.69
3.84
7.41
9.36
10.26
10.17
8.87
6.15
2.36
-1.67
-4.84
-6.31
-5.98
-4.32
-2.08
0.10
1.89
3.10
3.63
3.52
3.03
2.60
2.75
3.50
4.64
5.51
5.53
4.57
2.95
1.33
0.01
-1.09
-2.50
-4.51
-6.83
-8.68
-9.10
-7.86
-5.50
-3.30
-2.60
-4.25
-8.30
-13.84
-19.54
-23.89
-25.71
-24.56
-20.75
-15.06
-8.77
-2.92
1.77
5.17
7.58
9.34
10.62
11.25
10.88
9.33
6.89
4.30
2.33
1.57
2.06
3.49
5.51
7.82
10.40
13.00
15.01
15.59
14.18
11.02
7.04
3.71
2.10
2.49
4.45
7.02
9.29
10.82
11.26
10.31
7.52
2.63
-4.09
-11.60
-18.43
-23.19
-25.15
-24.75
-23.20
-21.77
-21.30
-21.71
-22.27
-22.02
-20.52
-17.98
-15.12
-12.60
-10.56
-8.77
-6.72
-4.15
-1.10
2.25
5.69
9.21
12.83
16.41
19.57
21.67
22.21
21.11
18.67
15.74
13.07
11.27
10.59
10.93
12.02
13.37
14.31
14.01
11.84
7.47
1.34
-5.30
-10.75
-13.25
-12.13
-8.03
-2.89
0.95
1.81
-0.89
-6.45
-13.40
-20.11
-25.10
-27.36
-26.46
-22.70
-17.24
-11.93
-8.43
-7.64
-8.90
-10.52
-10.50
-7.71
-2.38
4.14
10.11
14.28
16.10
15.74
13.68
10.56
6.90
3.15
-0.15
-2.50
-3.51
-3.04
-1.26
1.42
4.44
7.31
9.71
11.67
13.40
15.07
16.60
17.48
17.10
15.14
11.87
8.11
4.87
2.69
1.46
0.50
-0.88
-2.82
-4.85
-6.23
-6.44
-5.61
-4.56
-4.25
-5.19
-7.29
-9.86
-12.07
-13.31
-13.34
-12.26
-10.29
-7.77
-4.90
-1.88
1.25
4.56
8.05
11.83
15.80
19.67
23.03
25.52
26.81
26.99
26.48
25.99
26.27
27.85
30.85
34.87
39.30
43.43
46.91
49.72
52.10
54.39
56.74
59.07
61.04
62.23
62.11
60.14
55.83
48.98
40.11
30.68
23.00
19.48
21.81
30.11
42.73
56.46
67.51
72.54
69.48
58.09
40.14
18.83
-2.08
-19.26
-30.60
-35.51
-34.85
-30.42
-24.32
-18.54
-14.77
-14.25
-17.40
-23.74
-31.62
-38.79
-43.11
-43.64
-41.07
-37.25
-34.53
-34.33
-36.50
-39.46
-41.09
-39.98
-36.18
-31.38
-27.89
-27.19
-29.23
-32.42
-34.36
-33.51
-29.89
-25.29
-22.54
-23.83
-29.99
-40.57
-53.91
-68.18
-81.71
-93.26
-102.20
-108.73
-113.79
-118.67
-124.36
-130.85
-137.03
-140.90
-140.85
-136.46
-129.05
-121.04
-114.93
-112.26
-112.90
-115.41
-117.36
-115.93
-108.57
-93.82
-71.96
-45.41
-18.10
5.98
24.00
35.45
42.01
46.17
50.07
54.35
58.24
60.51
60.46
58.86
57.60
58.76
63.39
70.48
77.30
80.64
78.30
70.38
59.24
48.23
39.96
35.10
32.48
30.22
27.22
23.64
20.57
18.82
18.43
18.64
18.50
17.61
16.07
14.26
12.45
10.56
8.48
6.14
3.59
0.92
-1.71
-3.98
-5.20
-4.73
-2.18
1.79
5.92
8.94
10.47
11.24
12.53
15.09
18.50
21.40
22.60
21.98
20.72
20.40
21.91
24.55
26.63
26.85
25.06
22.62
21.38
22.28
24.82
27.45
28.62
27.48
24.19
19.46
13.94
8.02
1.93
-3.70
-7.95
-10.06
-9.88
-8.28
-6.74
-6.68
-8.57
-11.80
-15.07
-17.19
-17.76
-17.46
-17.59
-19.29
-22.79
-27.06
-30.33
-30.73
-27.35
-20.87
-13.03
-5.76
-0.34
3.05
5.22
6.92
8.52
9.83
10.51
10.46
9.93
9.38
9.04
9.02
9.39
10.26
11.76
13.70
15.60
16.70
16.52
15.26
13.89
13.64
15.10
17.89
20.68
22.00
21.05
18.19
14.78
12.48
12.30
14.18
16.98
19.11
19.37
17.53
14.27
10.93
8.65
7.84
8.08
8.70
9.11
9.10
8.71
7.90
6.42
3.99
0.48
-4.03
-9.04
-14.17
-18.90
-22.54
-24.39
-23.87
-20.60
-14.92
-7.67
0.02
6.99
12.41
15.73
16.82
15.98
13.77
10.89
7.91
5.16
2.59
0.42
-0.75
0.07
3.59
9.43
16.05
21.28
23.56
22.73
20.03
17.27
15.64
15.12
14.79
13.63
11.28
8.05
4.48
1.03
-2.35
-5.74
-9.02
-11.76
-13.34
-13.42
-12.32
-10.77
-9.47
-8.86
-8.93
-9.32
-9.78
-10.28
-11.09
-12.48
-14.41
-16.57
-18.38
-19.28
-18.93
-17.13
-14.05
-10.11
-5.87
-2.13
0.67
2.53
3.91
5.59
8.16
11.52
14.78
16.64
16.13
13.25
8.95
4.80
2.10
1.35
2.45
4.95
8.51
12.77
17.46
21.95
25.42
27.09
26.62
24.23
20.45
15.98
11.31
6.98
3.41
1.12
0.33
0.70
1.37
1.43
0.34
-1.74
-3.99
-5.60
-6.11
-5.96
-5.88
-6.67
-9.01
-13.03
-18.32
-24.10
-29.28
-32.77
-33.86
-32.77
-30.49
-28.35
-27.08
-26.56
-25.72
-23.29
-18.64
-12.28
-5.43
0.80
5.66
9.36
12.17
14.08
14.48
12.77
9.14
4.92
2.15
2.64
6.90
13.51
19.95
23.90
24.12
21.12
16.64
12.61
10.18
9.59
10.29
11.55
12.73
13.22
12.52
10.01
5.28
-1.40
-8.98
-15.86
-20.47
-21.78
-19.93
-15.87
-11.01
-6.69
-3.82
-2.73
-3.42
-5.59
-8.92
-12.98
-17.36
-21.51
-25.03
-27.38
-28.02
-26.57
-22.82
-16.92
-9.61
-1.96
4.89
9.92
12.70
13.34
12.35
10.48
8.37
6.60
5.55
5.48
6.21
7.33
8.10
7.92
6.76
5.23
4.38
5.23
8.17
12.67
17.49
21.20
22.65
21.53
18.13
13.21
7.70
2.49
-1.70
-4.49
-5.99
-6.76
-7.50
-8.63
-10.16
-11.49
-12.06
-11.66
-10.71
-10.07
-10.54
-12.37
-15.20
-18.13
-20.55
-22.17
-23.07
-23.20
-21.99
-18.39
-11.62
-1.91
9.15
18.90
24.91
26.09
23.24
18.60
14.44
12.00
11.03
10.50
9.37
7.58
5.68
4.45
4.17
4.57
5.18
5.80
6.51
7.52
8.89
10.21
10.90
10.58
9.15
7.03
4.70
2.59
0.87
-0.32
-1.05
-1.42
-1.67
-2.11
-2.97
-4.13
-5.31
-6.06
-6.47
-7.05
-8.77
-12.38
-17.97
-24.55
-30.42
-33.75
-33.43
-29.59
-23.52
-16.91
-11.02
-6.40
-2.70
0.50
3.39
5.79
7.34
8.03
8.23
8.67
9.88
12.06
14.87
17.73
19.93
21.07
20.94
19.53
17.03
13.95
10.99
8.93
8.18
8.71
9.88
10.88
11.07
10.16
8.26
5.81
3.24
0.91
-0.93
-2.32
-3.40
-4.62
-6.25
-8.39
-10.80
-13.07
-14.94
-16.27
-17.34
-18.43
-19.61
-20.53
-20.72
-20.07
-19.03
-18.42
-18.79
-19.82
-20.19
-18.31
-13.46
-6.24
1.42
7.37
10.46
11.09
10.93
11.69
14.18
17.76
20.88
22.01
20.60
17.28
13.47
10.55
9.22
9.38
10.17
10.75
10.58
9.76
8.69
7.81
7.17
6.53
5.49
3.90
2.20
1.21
1.66
3.77
6.89
9.78
11.17
10.36
7.56
3.72
-0.02
-2.79
-4.48
-5.61
-6.99
-9.15
-12.15
-15.44
-18.22
-19.68
-19.55
-18.20
-16.47
-15.21
-14.74
-14.59
-13.78
-11.22
-6.40
0.29
7.75
14.58
19.66
22.58
23.41
22.62
20.62
17.58
13.70
9.30
5.04
1.46
-1.69
-5.68
-12.21
-22.00
-33.39
-41.56
-39.94
-23.18
9.29
51.33
91.08
114.72
111.74
78.79
20.75
-51.41
-124.81
-188.56
-235.84
-264.17
-274.68
-271.09
-259.12
-245.56
-236.76
-236.79
-245.67
-258.75
-268.03
-265.08
-244.39
-206.06
-156.20
-104.89
-62.54
-35.90
-25.68
-26.64
-30.17
-27.50
-12.46
17.49
61.93
118.58
183.93
252.70
317.48
369.84
402.82
413.54
404.68
383.32
357.71
334.05
314.87
299.58
286.59
275.04
265.02
256.67
249.70
243.78
239.66
239.54
245.51
256.86
267.96
269.22
251.23
210.72
153.45
92.71
43.21
13.83
3.64
3.26
0.93
-10.89
-32.20
-57.13
-78.61
-92.88
-101.25
-108.18
-117.93
-131.68
-147.05
-159.68
-166.03
-165.23
-159.28
-152.31
-148.36
-149.67
-155.82
-164.19
-171.39
-174.95
-174.45
-171.56
-169.17
-169.47
-172.72
-176.92
-178.72
-175.21
-165.27
-150.31
-133.69
-119.31
-109.96
-106.07
-105.80
-105.86
-103.20
-96.15
-85.09
-71.71
-58.13
-45.47
-33.35
-20.17
-3.97
16.19
39.54
63.76
86.05
104.19
117.38
126.09
131.45
134.43
135.19
133.42
128.78
121.66
112.96
104.05
96.12
89.73
85.09
82.26
81.31
82.35
85.31
89.67
94.36
98.06
99.65
98.45
94.06
86.40
75.96
63.93
52.30
43.26
38.33
38.15
42.07
48.00
53.28
55.82
54.78
50.32
42.66
31.57
17.15
0.22
-18.12
-36.80
-55.18
-73.68
-93.66
-116.64
-142.54
-167.64
-185.08
-187.77
-171.08
-134.45
-81.55
-19.31
44.04
95.66
124.35
127.56
112.14
89.34
68.52
54.47
47.53
45.25
44.63
44.62
46.27
50.22
56.06
61.61
64.24
61.65
52.74
38.05
20.29
3.23
-11.13
-22.52
-32.58
-43.99
-59.46
-81.04
-110.01
-147.25
-187.17
-228.01
-269.63
-312.25
-354.40
-392.12
-419.72
-432.11
-426.68
-404.26
-369.07
-325.17
-275.12
-219.12
-156.04
-85.59
-10.12
65.40
135.76
197.11
249.22
293.59
331.34
361.29
379.54
381.10
362.79
326.09
277.18
225.10
176.79
134.46
96.28
58.66
19.04
-22.49
-62.98
-98.61
-120.58
-122.59
-105.59
-77.58
-47.87
-21.98
-1.48
14.26
26.18
35.02
40.35
40.86
36.72
29.09
19.32
8.28
-3.99
-17.99
-34.83
-55.90
-82.01
-110.91
-137.72
-156.44
-162.24
-153.42
-131.99
-103.23
-69.75
-37.45
-10.30
10.85
27.58
42.30
56.63
71.10
85.26
96.07
100.47
98.57
92.87
85.12
74.64
58.66
37.27
10.50
-18.62
-45.24
-64.09
-71.98
-69.43
-58.30
-43.14
-28.30
-16.01
-4.63
9.99
32.32
63.92
102.06
140.56
172.08
191.21
195.46
185.34
162.80
130.25
90.15
45.71
1.17
-38.70
-69.48
-88.80
-96.63
-94.86
-86.49
-74.44
-61.03
-47.84
-35.83
-25.56
-17.29
-11.06
-6.97
-5.15
-5.38
-7.16
-9.53
-11.62
-12.96
-13.80
-14.63
-15.72
-16.41
-15.17
-10.28
-1.09
11.49
24.99
36.54
43.90
46.03
42.98
35.49
24.68
12.09
-0.31
-10.63
-17.41
-20.39
-20.34
-18.45
-15.75
-12.62
-9.12
-5.47
-2.64
-1.68
-3.29
-7.05
-11.33
-14.04
-13.76
-10.27
-4.72
0.99
5.27
7.48
8.25
8.99
11.10
15.36
21.51
28.64
35.85
42.67
49.17
55.63
62.10
68.04
72.40
73.97
71.97
66.22
56.88
43.84
26.26
2.81
-27.42
-63.39
-101.04
-133.68
-153.75
-155.67
-138.23
-105.67
-66.15
-28.72
0.09
18.23
27.74
32.79
36.94
41.70
46.41
49.39
49.03
44.49
35.56
22.08
3.97
-18.28
-42.89
-66.81
-86.56
-99.90
-106.94
-110.09
-112.73
-116.89
-122.01
-125.48
-124.42
-117.95
-108.07
-98.73
-93.47
-93.56
-97.23
-101.07
-102.26
-100.33
-96.97
-94.05
-90.98
-83.94
-67.54
-38.05
3.53
50.86
94.78
127.12
143.85
145.74
136.89
122.43
107.21
95.37
90.21
93.69
104.94
120.05
133.33
139.42
136.00
124.44
108.67
92.27
76.62
60.78
43.27
24.59
8.48
-0.28
0.73
9.77
22.69
35.63
46.75
56.25
65.43
74.61
83.19
89.94
93.95
94.79
92.84
89.21
85.32
82.39
80.44
79.36
78.65
77.64
74.37
67.44
56.95
44.75
33.55
24.49
18.19
14.32
11.73
6.32
-5.48
-24.75
-50.71
-75.24
-94.77
-107.83
-114.81
-117.24
-121.11
-130.85
-146.17
-162.47
-174.41
-179.81
-178.71
-173.03
-165.85
-165.67
-179.36
-208.59
-250.46
-300.92
-357.23
-415.53
-469.86
-481.29
-427.58
-319.19
-191.69
-78.20
5.66
59.05
89.68
107.47
120.22
126.51
122.82
109.46
91.13
74.02
61.84
55.30
53.37
53.98
50.90
39.61
21.03
0.31
-17.48
-29.44
-34.84
-34.38
-29.54
-24.55
-22.74
-23.89
-25.59
-25.21
-21.33
-13.41
-1.20
15.83
38.09
61.15
84.64
109.87
137.90
168.11
197.79
222.82
238.95
242.98
234.36
215.95
191.97
166.29
141.28
118.17
97.78
80.88
67.94
58.43
51.42
44.99
37.42
28.06
17.55
7.20
-1.73
-8.60
-13.60
-17.13
-20.21
-24.36
-31.10
-41.11
-53.57
-65.76
-73.86
-74.44
-65.71
-48.50
-26.01
-2.82
16.64
28.99
32.79
28.99
20.46
11.35
5.51
4.91
9.20
16.20
23.30
28.97
33.02
36.03
38.16
38.27
34.68
26.26
13.71
-0.32
-12.25
-19.33
-21.23
-20.21
-20.16
-24.94
-36.92
-56.08
-80.25
-105.49
-127.09
-140.46
-142.08
-130.41
-106.35
-73.28
-36.16
-0.19
30.75
54.71
71.64
82.52
88.14
88.83
84.61
75.94
64.25
51.75
40.61
32.30
27.04
24.00
22.23
21.27
21.25
22.52
24.96
27.81
29.77
29.79
27.43
22.88
16.61
8.87
-0.02
-9.43
-18.01
-24.04
-26.32
-24.94
-21.59
-18.82
-18.79
-22.16
-27.73
-33.18
-35.95
-34.51
-28.69
-19.41
-8.28
3.06
13.28
21.31
26.47
28.78
28.64
26.98
24.84
23.19
22.49
22.57
22.92
23.04
22.79
22.46
22.41
22.56
22.20
20.23
15.86
9.43
2.29
-3.62
-6.83
-6.96
-4.87
-2.15
-0.14
0.44
-0.31
-2.18
-5.07
-9.15
-14.40
-20.06
-24.94
-27.51
-26.89
-23.30
-17.80
-11.66
-5.70
-0.07
5.37
10.70
15.43
19.04
21.18
22.01
21.96
21.32
20.06
17.96
15.18
12.54
11.08
11.43
13.26
15.32
16.15
14.96
12.16
8.89
6.26
4.65
3.44
1.80
-1.01
-5.02
-9.75
-14.66
-19.34
-23.71
-27.68
-30.99
-33.33
-34.26
-33.65
-31.27
-27.11
-21.03
-12.98
-3.29
7.22
17.37
25.92
32.13
35.65
36.54
34.94
31.22
26.18
21.25
18.06
17.68
19.90
23.26
25.68
25.77
23.64
20.75
18.98
19.24
20.99
22.58
22.37
19.75
15.37
10.34
5.61
1.52
-2.24
-6.02
-9.92
-13.65
-17.05
-20.27
-23.72
-27.59
-31.51
-34.28
-34.46
-31.02
-23.88
-14.09
-3.31
6.93
15.74
22.77
28.05
31.42
32.71
31.94
29.68
27.12
25.42
25.10
25.59
25.58
24.01
20.74
16.82
13.71
12.43
12.53
12.67
11.32
8.04
3.72
0.08
-1.40
-0.52
1.60
2.97
1.84
-2.51
-9.50
-17.68
-25.37
-31.30
-35.02
-36.53
-36.11
-33.96
-29.99
-24.09
-16.31
-7.57
0.47
5.84
7.12
4.17
-1.48
-7.23
-10.57
-9.94
-5.61
0.93
7.65
13.08
16.56
18.48
19.55
20.25
20.77
20.95
20.71
20.11
19.21
17.96
16.05
13.18
9.36
4.96
0.51
-3.47
-6.89
-9.85
-12.56
-14.89
-16.60
-17.53
-17.93
-18.48
-19.80
-22.00
-24.45
-25.97
-25.36
-22.05
-16.22
-8.50
0.19
9.04
17.18
23.66
27.52
28.08
25.33
20.15
13.93
8.31
4.42
2.70
2.98
4.88
7.97
11.92
16.25
20.65
24.49
27.04
27.61
25.79
21.57
15.54
8.70
2.18
-3.12
-6.84
-9.15
-10.51
-11.76
-14.03
-18.76
-27.32
-40.16
-55.83
-70.56
-78.92
-75.62
-57.85
-27.10
10.74
47.14
73.98
86.21
83.38
68.97
48.70
28.19
11.42
0.29
-4.94
-4.88
-0.34
7.79
18.45
30.19
41.33
50.35
56.38
59.11
58.93
56.13
50.86
42.96
32.42
19.53
5.30
-8.84
-21.43
-31.35
-38.22
-42.32
-44.47
-45.75
-47.12
-49.24
-51.97
-54.36
-54.90
-52.06
-44.99
-34.19
-21.34
-8.68
1.83
9.28
13.71
15.84
16.33
15.36
12.78
8.28
1.83
-6.27
-15.35
-24.68
-33.22
-39.84
-43.30
-42.68
-37.82
-29.47
-19.07
-8.14
2.36
12.27
21.83
30.90
38.38
42.22
40.36
31.61
16.48
-2.72
-22.61
-39.86
-51.98
-57.91
-58.06
-54.01
-48.04
-42.50
-39.30
-39.13
-41.20
-43.59
-44.02
-41.03
-34.30
-24.79
-13.96
-3.02
7.37
16.98
25.58
32.66
37.54
39.69
39.15
36.56
32.92
29.05
25.58
22.80
20.78
19.60
19.23
19.46
20.20
21.29
22.73
24.41
25.91
26.47
25.09
21.04
14.28
5.82
-2.71
-9.61
-13.80
-15.18
-14.54
-12.94
-11.19
-9.80
-9.00
-9.23
-11.15
-15.48
-22.43
-31.37
-40.76
-48.52
-52.77
-52.12
-46.14
-35.23
-20.59
-4.11
11.92
25.20
33.87
37.09
35.28
29.88
22.96
16.56
12.09
10.27
10.92
13.44
17.03
21.09
25.24
29.22
32.64
34.70
34.46
30.97
23.83
13.54
1.72
-9.42
-17.81
-21.98
-22.01
-18.92
-14.42
-9.93
-6.26
-3.40
-1.18
0.30
0.46
-1.46
-5.87
-12.50
-20.42
-28.38
-35.39
-41.05
-45.38
-48.63
-50.87
-51.90
-51.35
-48.75
-43.88
-36.65
-27.22
-16.09
-4.14
7.24
16.49
22.32
24.21
22.86
19.78
16.86
15.55
16.44
19.07
22.70
26.53
30.51
34.98
40.31
46.43
52.67
57.88
60.82
60.66
56.92
50.00
40.84
30.75
21.37
13.79
8.55
5.17
2.56
-0.50
-4.73
-10.22
-16.55
-23.25
-30.05
-36.82
-43.16
-48.11
-50.31
-48.72
-43.40
-35.82
-28.08
-22.12
-18.22
-15.03
-10.19
-1.91
9.95
23.50
35.79
44.45
48.32
47.95
44.45
38.66
30.75
20.61
8.91
-2.52
-10.65
-12.80
-7.65
3.73
18.28
31.93
41.33
44.89
42.94
37.22
29.71
21.82
14.07
6.32
-1.49
-9.10
-15.79
-20.93
-24.33
-26.24
-27.09
-27.08
-26.22
-24.49
-22.48
-21.36
-22.55
-26.73
-33.42
-40.88
-46.91
-49.77
-48.52
-43.04
-33.41
-19.52
-1.29
20.63
44.43
67.23
85.86
97.86
102.15
99.22
90.69
78.78
66.20
55.76
49.80
49.08
51.52
51.53
40.85
11.48
-40.56
-112.38
-193.73
-270.04
-327.23
-356.52
-356.57
-332.30
-291.46
-241.06
-185.49
-127.39
-69.64
-16.85
24.93
50.41
57.37
47.91
27.54
2.96
-20.40
-39.81
-55.14
-67.98
-79.92
-91.53
-101.75
-108.17
-107.75
-97.79
-76.99
-45.99
-7.17
35.76
78.78
118.20
151.05
175.21
189.30
192.88
186.67
172.50
153.20
131.75
110.65
91.47
75.02
61.82
52.52
47.88
48.26
52.96
59.98
66.35
69.26
66.88
59.01
46.80
32.60
19.30
9.91
7.33
13.27
27.58
47.52
67.85
82.49
86.99
80.79
68.11
56.50
53.89
65.85
93.33
132.05
173.63
208.31
227.76
227.52
207.74
172.29
128.30
83.37
42.88
8.54
-21.11
-48.42
-74.77
-99.94
-123.40
-143.39
-158.39
-168.21
-174.53
-180.55
-189.49
-203.58
-223.01
-246.03
-265.88
-273.02
-258.55
-218.18
-153.23
-69.04
27.92
132.10
229.27
300.46
329.60
313.87
263.81
194.91
121.61
54.52
4.30
-30.56
-50.91
-56.84
-48.92
-29.71
-4.00
22.81
44.53
57.39
59.40
53.23
44.01
36.88
34.41
35.89
38.47
36.80
27.58
9.30
-15.14
-40.72
-62.79
-79.12
-90.20
-98.16
-107.72
-120.13
-134.77
-148.83
-158.78
-162.08
-158.33
-149.79
-140.62
-132.03
-125.97
-123.48
-123.49
-123.76
-122.27
-118.38
-112.96
-107.42
-102.47
-97.26
-89.92
-78.74
-63.63
-46.20
-28.86
-13.14
1.19
15.68
31.64
48.77
64.55
75.28
77.92
71.75
59.05
44.25
32.20
26.40
27.94
35.67
46.97
59.05
69.94
78.64
84.81
88.21
88.46
85.34
79.23
71.36
63.44
57.07
53.01
51.01
49.97
48.74
46.72
44.23
42.15
41.23
41.74
43.34
45.12
46.20
45.99
44.21
41.04
36.82
31.75
25.85
18.91
10.94
2.48
-5.44
-11.55
-14.92
-15.52
-14.24
-12.57
-11.97
-13.12
-15.79
-19.09
-22.02
-24.07
-25.12
-25.36
-24.80
-23.19
-20.11
-15.40
-9.44
-3.17
2.32
6.05
7.58
7.03
4.83
1.57
-2.22
-6.07
-9.58
-12.59
-15.17
-17.43
-19.38
-20.67
-20.68
-18.92
-15.22
-10.01
-4.46
-0.12
1.83
1.01
-2.15
-6.59
-11.07
-14.69
-17.06
-18.36
-19.18
-19.94
-20.85
-21.89
-23.09
-24.43
-25.86
-27.11
-27.82
-27.56
-25.53
-21.11
-14.30
-6.12
1.90
8.72
13.85
17.17
18.33
18.06
17.36
17.02
16.99
16.72
16.78
17.90
19.99
20.78
19.53
16.87
14.74
15.22
19.78
30.05
44.60
58.03
60.14
45.01
13.02
-28.19
-66.53
-88.66
-81.80
-39.94
33.33
123.41
215.74
298.71
366.02
415.53
432.92
410.77
354.36
297.21
249.59
213.31
183.20
159.08
140.96
127.78
119.33
114.22
109.55
99.17
81.64
58.31
31.56
1.80
-32.44
-71.56
-115.71
-165.36
-223.26
-288.78
-358.86
-428.37
-491.72
-543.09
-576.05
-585.89
-571.35
-536.18
-485.49
-425.28
-361.89
-301.86
-250.61
-210.54
-181.00
-158.98
-140.97
-123.00
-102.22
-77.55
-49.68
-20.23
9.34
37.57
63.12
84.50
101.09
113.35
122.69
130.79
138.83
146.95
154.12
158.76
159.41
155.38
147.08
135.66
122.86
110.39
99.53
91.06
85.05
81.02
78.03
75.11
71.50
66.95
61.79
56.65
52.13
48.32
44.92
41.22
36.67
31.06
24.67
17.87
11.09
4.49
-1.97
-8.33
-14.50
-20.14
-24.68
-27.48
-28.04
-26.14
-21.97
-16.11
-9.33
-2.44
4.05
9.78
14.66
18.68
21.75
23.86
24.92
24.82
23.50
21.09
17.84
14.16
10.57
7.56
5.63
5.23
6.69
9.69
13.03
14.47
11.41
1.91
-14.27
-35.26
-57.74
-78.23
-94.31
-104.96
-109.96
-109.26
-102.49
-89.55
-71.32
-50.25
-29.83
-13.32
-2.51
2.88
4.69
5.33
6.64
9.61
14.37
20.54
27.47
34.23
39.66
42.83
43.44
42.28
40.89
40.95
43.18
47.16
51.38
54.11
54.47
52.85
50.65
49.56
50.86
54.73
60.34
66.35
71.44
74.80
76.22
76.02
74.81
73.31
71.85
70.50
69.01
67.03
64.36
60.94
56.81
52.08
46.82
41.15
35.13
28.95
22.78
17.06
12.14
8.38
5.83
4.09
2.46
0.31
-2.55
-5.83
-8.78
-10.85
-12.12
-13.31
-15.43
-19.00
-23.65
-28.33
-31.98
-34.21
-35.58
-37.14
-39.59
-42.72
-45.43
-46.50
-45.38
-42.51
-39.19
-36.80
-36.01
-36.62
-37.77
-38.51
-38.30
-37.21
-35.73
-34.33
-33.30
-32.67
-32.34
-32.20
-32.06
-31.71
-30.91
-29.45
-27.18
-24.30
-21.08
-17.99
-15.66
-14.56
-14.94
-16.51
-18.44
-19.43
-18.35
-14.70
-9.08
-2.93
2.00
4.47
4.38
2.58
0.38
-1.17
-1.66
-1.13
0.08
1.85
4.12
6.61
8.71
9.72
9.26
7.70
6.17
5.98
7.94
11.78
16.35
20.15
22.05
21.78
20.04
17.93
16.48
16.39
17.55
19.43
21.24
22.46
22.84
22.45
21.54
20.22
18.40
16.13
13.63
11.36
9.68
8.50
7.21
4.84
0.73
-4.98
-11.30
-16.95
-20.87
-22.80
-23.33
-23.52
-24.18
-25.54
-27.08
-27.92
-27.28
-24.79
-20.61
-15.31
-9.66
-4.53
-0.66
1.54
1.91
0.64
-1.74
-4.51
-7.05
-8.75
-9.14
-8.07
-5.60
-2.14
1.78
5.33
8.07
9.99
11.57
13.37
15.57
17.66
18.76
18.05
15.56
12.13
9.11
7.82
8.80
11.58
14.99
17.69
18.81
18.10
15.96
13.23
10.74
9.07
8.31
8.07
7.70
6.61
4.51
1.43
-2.31
-6.45
-10.67
-14.87
-18.83
-22.27
-24.86
-26.36
-26.65
-25.97
-24.63
-22.97
-21.02
-18.53
-15.13
-10.60
-5.25
0.11
4.36
6.57
6.44
4.44
1.53
-1.24
-3.27
-4.44
-4.94
-4.85
-4.04
-2.11
1.17
5.43
9.91
13.59
15.70
15.99
14.76
12.67
10.29
7.89
5.51
2.99
0.36
-2.13
-3.93
-4.57
-3.82
-2.01
0.08
1.49
1.46
-0.21
-3.13
-6.51
-9.67
-12.44
-15.12
-18.32
-22.57
-27.81
-33.60
-39.21
-43.84
-46.97
-48.24
-47.26
-43.74
-37.64
-29.59
-20.81
-12.77
-6.51
-2.14
1.23
4.80
9.20
14.01
18.06
20.31
20.54
19.72
19.42
20.98
24.77
30.10
35.76
40.59
43.78
45.11
44.82
43.40
41.50
39.74
38.35
37.16
35.63
33.16
29.47
24.77
19.56
14.44
9.86
6.04
3.07
1.04
-0.05
-0.39
-0.33
-0.45
-1.38
-3.47
-6.89
-11.50
-16.94
-22.73
-28.26
-32.93
-36.19
-37.73
-37.39
-35.13
-31.05
-25.38
-18.58
-11.31
-4.38
1.49
5.73
8.12
8.67
7.62
5.12
1.25
-3.64
-8.97
-13.72
-16.60
-16.37
-12.48
-5.53
2.78
10.08
14.53
15.65
14.59
13.62
14.91
19.15
25.25
30.74
33.18
31.19
24.99
16.02
6.07
-3.40
-11.53
-17.96
-22.32
-24.31
-23.93
-21.78
-19.19
-17.68
-18.53
-21.65
-25.72
-28.52
-28.06
-23.40
-15.15
-5.12
4.57
12.26
17.41
20.36
21.68
21.57
19.89
16.43
11.44
5.76
0.56
-3.10
-4.65
-4.11
-1.78
1.93
6.68
12.04
17.37
21.72
24.20
24.23
22.06
18.62
14.93
11.85
9.64
7.93
6.15
3.88
0.96
-2.46
-6.16
-9.98
-13.82
-17.42
-20.42
-22.38
-23.10
-22.78
-21.95
-21.28
-21.12
-21.39
-21.54
-21.01
-19.48
-16.95
-13.62
-9.73
-5.50
-1.19
2.70
5.45
6.37
5.29
2.71
-0.24
-2.12
-1.95
0.37
4.02
7.57
9.60
9.43
7.23
3.86
0.32
-2.60
-4.63
-6.07
-7.51
-9.46
-12.23
-15.76
-19.66
-23.31
-26.07
-27.45
-27.34
-25.88
-23.44
-20.22
-16.12
-10.88
-4.39
2.70
9.09
13.14
13.65
10.60
5.26
-0.27
-4.03
-5.12
-4.12
-2.51
-1.83
-2.65
-4.57
-6.58
-7.86
-8.45
-9.08
-10.58
-13.20
-16.36
-18.96
-20.03
-19.40
-17.60
-15.58
-13.96
-12.71
-11.19
-8.71
-4.99
-0.30
4.75
9.77
14.69
19.88
25.64
31.88
38.03
43.32
47.15
49.38
50.36
50.46
49.89
48.64
46.57
43.66
39.96
35.44
29.98
23.60
16.67
10.06
4.92
2.11
1.80
3.33
5.45
7.12
7.75
7.52
7.03
6.78
6.88
6.97
6.45
4.77
1.57
-2.97
-8.20
-13.02
-16.24
-17.14
-15.67
-12.62
-9.07
-5.81
-3.02
-0.31
2.81
6.21
9.21
10.80
10.29
7.90
4.67
1.87
0.24
-0.59
-1.88
-4.89
-9.98
-16.34
-22.48
-27.05
-29.63
-30.93
-32.04
-33.66
-35.73
-37.57
-38.58
-38.55
-37.80
-36.81
-35.59
-33.64
-30.20
-24.78
-17.60
-9.47
-1.34
5.80
11.50
15.55
17.99
19.01
18.93
18.12
17.15
16.46
16.38
16.89
17.76
18.63
19.01
18.58
17.16
14.75
11.50
7.69
3.72
0.12
-2.63
-4.23
-4.66
-4.24
-3.49
-2.99
-3.15
-4.25
-6.33
-9.28
-12.78
-16.40
-19.60
-21.84
-22.61
-21.72
-19.28
-15.69
-11.55
-7.52
-3.98
-1.06
1.26
3.15
4.73
5.98
6.72
6.80
6.17
4.96
3.36
1.66
0.14
-0.90
-1.23
-0.66
0.74
2.78
5.15
7.67
10.31
13.12
16.21
19.30
21.99
23.79
24.56
24.76
25.38
27.72
32.74
40.49
50.01
59.75
68.18
74.44
78.65
81.53
83.98
86.44
88.70
89.96
89.25
85.69
78.80
68.54
55.29
39.80
23.00
5.91
-10.46
-25.19
-37.66
-47.57
-55.03
-60.69
-65.21
-68.76
-70.51
-68.68
-61.28
-46.89
-25.49
1.48
31.49
61.83
90.10
114.40
133.27
145.65
151.09
150.03
143.94
134.78
124.39
113.73
102.68
90.31
75.50
57.59
36.57
13.20
-11.29
-35.60
-58.63
-79.46
-97.42
-111.97
-122.83
-130.11
-134.22
-135.63
-134.67
-131.27
-125.32
-116.90
-106.85
-96.64
-87.86
-81.43
-77.13
-73.66
-69.44
-63.42
-55.15
-44.55
-31.33
-14.93
5.13
28.38
53.04
76.39
95.54
108.68
115.60
117.42
115.69
111.68
105.84
98.09
88.30
76.82
64.28
51.28
37.78
23.10
6.22
-13.37
-35.02
-56.70
-75.60
-89.08
-95.93
-96.49
-92.35
-85.66
-78.36
-71.87
-67.17
-65.06
-65.99
-69.79
-75.25
-80.25
-82.29
-79.36
-70.64
-56.83
-39.88
-22.21
-6.10
6.84
15.74
20.48
21.57
20.07
17.27
14.30
11.84
9.85
7.73
4.91
1.26
-2.43
-4.86
-4.89
-2.11
2.89
8.58
13.27
15.80
15.84
13.83
10.57
6.88
3.36
0.18
-2.91
-6.54
-11.60
-18.87
-28.58
-39.89
-51.05
-59.83
-64.39
-63.82
-58.33
-48.84
-36.45
-21.91
-5.49
12.52
31.47
50.05
66.67
80.12
89.97
96.47
99.75
99.28
93.59
81.17
61.82
37.56
12.34
-9.53
-25.40
-35.32
-41.57
-46.95
-52.81
-58.49
-62.15
-62.50
-60.11
-57.25
-56.72
-60.05
-66.67
-74.15
-79.65
-81.49
-79.75
-76.14
-72.62
-70.31
-68.77
-66.32
-61.07
-52.05
-40.10
-27.36
-16.38
-8.85
-4.90
-3.37
-2.66
-1.71
-0.59
-0.04
-0.89
-3.45
-7.14
-10.96
-13.98
-15.66
-15.99
-15.17
-13.69
-12.07
-10.95
-10.89
-12.14
-14.62
-17.85
-21.32
-24.58
-27.35
-29.47
-30.69
-30.54
-28.48
-24.23
-17.91
-10.05
-1.20
8.42
18.99
30.78
43.83
57.45
70.52
81.86
90.54
96.41
99.83
101.37
101.55
100.58
98.69
96.18
93.51
91.04
88.80
86.59
84.02
81.04
77.99
75.37
73.34
71.46
68.89
64.90
59.50
53.53
48.41
45.15
43.87
43.67
43.45
42.48
40.63
38.22
35.33
31.67
26.83
20.96
14.99
10.26
7.60
6.64
5.97
3.78
-0.93
-8.13
-16.77
-25.69
-34.33
-42.86
-51.54
-60.20
-68.15
-74.45
-78.64
-81.01
-82.44
-83.96
-86.16
-88.91
-91.28
-92.03
-89.88
-84.08
-75.00
-63.93
-52.69
-42.49
-33.42
-24.08
-12.66
1.94
19.23
37.14
52.95
64.34
70.41
71.26
67.52
59.52
47.32
31.15
12.11
-7.62
-25.46
-39.16
-47.65
-51.21
-51.24
-49.36
-46.84
-44.35
-41.89
-39.39
-37.03
-35.42
-35.35
-37.23
-40.78
-45.09
-49.17
-52.27
-54.25
-55.29
-55.58
-54.88
-52.73
-48.72
-43.13
-36.71
-30.36
-24.67
-19.45
-14.20
-8.42
-2.19
3.72
8.19
10.34
9.93
7.27
3.20
-1.37
-5.51
-8.36
-9.22
-7.62
-3.52
2.54
9.74
17.10
23.68
28.86
32.08
32.84
30.72
25.46
17.35
7.27
-3.36
-13.07
-20.54
-25.22
-27.21
-27.16
-26.08
-24.98
-24.74
-25.76
-28.03
-31.12
-34.40
-37.43
-39.96
-42.21
-44.55
-47.51
-51.61
-57.28
-64.51
-72.79
-80.86
-87.18
-90.47
-90.11
-86.39
-80.29
-73.01
-65.72
-59.32
-54.65
-52.35
-52.82
-55.72
-59.74
-62.75
-62.46
-57.44
-47.74
-34.89
-21.17
-8.62
1.78
10.20
17.46
24.53
31.78
38.68
44.19
47.23
47.32
44.93
41.27
37.66
34.78
32.46
29.80
25.93
20.70
14.98
10.11
7.35
6.92
8.04
9.36
9.89
9.45
8.79
8.92
10.48
13.15
15.83
16.96
15.48
11.27
5.20
-1.18
-6.21
-8.49
-7.33
-2.52
5.46
15.59
26.37
36.02
43.01
46.60
47.23
46.44
46.07
47.28
50.09
53.37
55.73
56.18
54.69
51.88
48.50
44.94
41.16
36.82
31.76
26.26
21.08
17.17
15.20
15.40
17.43
20.53
23.96
27.18
29.94
32.20
33.84
34.58
34.02
31.96
28.77
25.28
22.56
21.41
21.87
23.17
23.88
22.50
18.16
10.88
1.80
-7.36
-14.81
-19.20
-19.91
-17.00
-11.07
-2.87
6.84
17.44
28.31
38.83
48.41
56.63
63.30
68.31
71.59
73.12
73.05
71.98
70.77
70.59
72.74
77.78
85.09
92.86
98.70
100.51
97.15
88.76
76.73
63.78
52.62
44.80
40.14
37.18
34.14
29.92
24.67
20.02
18.91
23.08
31.65
40.85
45.99
43.66
33.89
20.10
7.92
4.13
12.68
32.97
59.99
86.83
107.43
118.88
121.48
109.19
80.41
39.37
-4.94
-44.84
-78.39
-108.74
-139.15
-171.65
-203.57
-227.69
-236.44
-225.23
-194.53
-146.77
-89.70
-33.80
10.45
35.47
39.39
24.70
-3.82
-41.92
-87.27
-139.74
-198.97
-262.30
-323.15
-371.32
-396.80
-394.03
-364.86
-317.92
-265.37
-217.52
-179.46
-150.25
-124.64
-96.82
-63.10
-23.09
21.12
65.83
106.99
140.10
160.38
163.87
148.73
116.79
74.22
30.28
-5.46
-25.98
-29.50
-19.77
-4.10
9.89
17.26
17.00
11.26
3.42
-3.16
-6.92
-7.99
-6.82
-3.17
4.04
15.89
32.25
51.39
72.06
92.82
112.89
132.84
154.60
180.99
214.50
256.27
305.83
363.19
425.48
486.52
537.76
570.98
581.31
568.88
538.50
497.54
456.34
421.27
393.03
367.99
341.78
312.18
280.23
248.67
201.34
132.16
44.78
-48.63
-135.14
-207.09
-261.97
-299.73
-320.79
-328.78
-323.96
-308.36
-286.20
-262.83
-242.43
-226.81
-215.16
-206.88
-202.27
-199.44
-197.06
-194.03
-189.64
-183.82
-177.82
-174.56
-177.89
-190.67
-210.75
-232.87
-250.10
-256.43
-248.97
-228.79
-200.27
-168.91
-138.69
-109.61
-79.54
-46.42
-10.45
25.21
56.03
78.12
90.31
94.56
95.18
96.19
99.73
105.51
111.73
116.53
118.90
119.01
117.68
115.77
113.60
110.84
107.02
101.85
95.53
88.58
81.49
74.49
67.36
59.88
52.01
44.14
36.72
29.96
23.59
17.20
10.70
4.41
-1.05
-5.37
-8.92
-12.50
-16.63
-20.82
-23.53
-22.80
-17.32
-7.27
5.47
17.67
25.95
27.80
22.19
9.72
-7.97
-28.87
-51.21
-73.50
-94.55
-112.99
-127.25
-135.94
-138.32
-134.93
-127.54
-118.49
-109.79
-102.38
-96.02
-89.77
-82.81
-74.85
-66.29
-57.91
-50.52
-44.64
-40.35
-37.44
-35.41
-33.82
-32.02
-29.43
-25.44
-19.56
-11.63
-2.09
8.00
17.09
23.41
25.56
22.88
15.56
4.63
-8.37
-21.59
-33.27
-41.71
-45.67
-44.66
-39.10
-30.40
-20.71
-12.19
-6.60
-4.86
-6.97
-12.23
-19.30
-26.51
-32.20
-35.03
-34.50
-31.07
-25.89
-20.23
-14.98
-10.25
-5.51
-0.03
6.69
14.68
23.56
32.75
41.57
49.33
55.49
59.68
61.64
61.57
60.11
58.03
56.35
55.89
57.01
59.48
62.45
64.72
65.03
62.43
56.63
48.09
37.97
27.82
19.11
12.68
8.37
5.02
1.23
-3.89
-9.98
-15.78
-19.82
-21.21
-19.94
-16.49
-11.08
-3.45
6.88
19.80
34.16
47.80
58.72
65.72
69.08
70.13
70.67
71.94
74.09
76.16
76.42
73.34
66.34
56.32
45.39
36.03
29.69
26.29
24.29
21.60
16.79
9.73
1.60
-5.91
-11.47
-14.71
-16.00
-16.28
-16.52
-17.38
-19.10
-21.65
-24.68
-27.90
-31.07
-34.02
-36.55
-38.46
-39.58
-39.92
-39.78
-39.67
-40.06
-41.11
-42.59
-43.95
-44.63
-44.11
-42.36
-39.54
-36.02
-31.98
-27.35
-21.77
-14.69
-5.75
4.99
16.63
27.65
36.49
42.01
44.16
43.91
42.42
40.70
38.98
36.96
34.46
31.75
29.48
28.26
28.04
28.10
27.37
25.10
21.22
16.33
11.24
6.45
2.31
-0.89
-2.63
-2.28
0.40
4.89
9.90
13.84
15.50
14.66
12.14
9.21
7.25
6.85
7.85
9.42
10.41
9.94
7.57
3.45
-2.01
-8.18
-14.67
-21.06
-27.08
-32.40
-36.91
-41.00
-45.67
-52.41
-62.26
-75.05
-89.12
-101.57
-109.71
-112.61
-112.30
-113.27
-120.74
-138.45
-167.14
-204.12
-244.22
-281.21
-309.06
-322.80
-319.16
-297.28
-259.26
-210.28
-157.93
-110.23
-73.67
-51.21
-42.07
-42.66
-48.35
-55.04
-60.18
-62.63
-62.50
-60.62
-58.26
-56.56
-56.17
-56.89
-57.38
-55.62
-49.41
-37.24
-18.96
4.12
29.54
54.29
75.59
91.62
101.81
106.97
108.89
109.71
111.29
114.79
120.35
127.34
134.97
142.40
149.16
154.82
158.98
161.47
162.33
162.09
161.42
160.88
160.49
159.56
156.97
151.80
143.83
133.84
123.36
113.88
106.30
100.45
95.25
89.45
82.27
73.92
65.48
58.41
53.94
52.47
53.61
56.37
59.50
61.59
61.35
57.28
48.18
33.40
13.33
-10.36
-35.00
-57.62
-75.65
-87.48
-92.54
-91.08
-83.83
-71.78
-56.28
-38.91
-21.48
-5.74
7.23
17.29
25.48
33.76
44.42
59.48
79.68
103.93
128.93
149.80
161.40
160.16
145.52
120.27
89.85
60.22
35.95
18.85
8.00
0.94
-4.88
-10.88
-17.13
-22.90
-27.35
-30.21
-31.72
-32.47
-32.84
-32.64
-31.41
-28.71
-24.62
-19.87
-15.49
-12.40
-11.01
-11.15
-12.42
-14.17
-15.85
-17.11
-17.87
-18.34
-18.89
-19.83
-21.03
-21.83
-21.33
-18.88
-14.63
-9.81
-6.18
-5.23
-7.25
-11.20
-15.41
-18.53
-20.26
-21.43
-23.26
-26.66
-31.87
-38.66
-46.59
-55.10
-63.44
-70.62
-75.39
-76.82
-75.02
-71.30
-67.61
-65.71
-66.17
-68.05
-69.52
-68.93
-65.68
-60.41
-54.50
-49.17
-44.93
-41.57
-38.66
-35.98
-33.87
-32.90
-33.55
-35.65
-38.27
-40.20
-40.50
-39.13
-37.00
-35.44
-35.41
-36.83
-38.50
-38.74
-36.22
-30.69
-23.08
-15.10
-8.39
-3.93
-1.91
-1.94
-3.46
-5.99
-8.86
-11.13
-11.52
-8.75
-2.18
7.67
19.09
29.66
37.13
40.25
38.96
34.42
28.39
22.55
18.11
15.70
15.40
17.02
20.08
23.90
27.63
30.57
32.28
32.93
33.09
33.41
34.25
35.58
37.05
38.20
38.76
38.50
37.22
34.59
30.27
24.31
17.37
10.74
5.92
3.86
4.41
6.57
8.80
9.77
8.80
6.02
2.13
-1.98
-5.57
-8.18
-9.76
-10.52
-10.69
-10.19
-8.65
-5.54
-0.59
5.93
13.03
19.45
24.22
26.93
27.86
27.57
26.47
24.61
21.83
18.19
14.19
10.62
8.13
6.81
6.08
5.09
3.42
1.29
-0.46
-0.98
-0.04
1.78
3.29
3.35
1.65
-1.25
-4.20
-6.01
-5.91
-3.62
0.86
7.46
15.73
24.61
32.57
37.97
39.87
38.65
35.94
33.76
33.58
35.43
37.93
39.09
37.34
32.44
25.56
18.77
14.15
12.90
15.13
20.05
26.45
33.25
39.72
45.37
49.85
52.87
54.17
53.79
52.27
50.51
49.40
49.51
50.85
52.84
54.67
55.55
55.02
52.86
49.29
44.74
39.89
35.42
31.69
28.67
25.77
22.12
16.85
9.47
0.03
-10.91
-22.28
-32.78
-41.21
-46.56
-48.46
-47.29
-44.18
-40.67
-38.34
-38.14
-40.35
-44.45
-49.54
-54.50
-58.35
-60.40
-60.28
-58.01
-53.96
-48.87
-43.69
-39.40
-36.70
-35.86
-36.74
-38.71
-40.95
-42.51
-42.77
-41.45
-38.59
-34.65
-30.24
-25.85
-21.82
-18.19
-14.79
-11.40
-7.70
-3.42
1.65
7.66
14.69
22.59
30.74
38.26
44.06
47.32
47.94
46.55
44.34
42.35
41.10
40.36
39.43
37.72
34.96
31.33
27.00
21.95
15.76
7.99
-1.30
-11.37
-20.79
-28.17
-32.70
-34.65
-34.98
-34.95
-35.34
-36.24
-36.97
-36.77
-35.15
-32.20
-28.48
-24.67
-21.36
-18.93
-17.39
-16.54
-15.87
-14.70
-12.36
-8.63
-3.93
0.76
4.27
5.96
5.97
5.11
4.24
3.67
2.96
1.32
-1.72
-5.86
-10.04
-13.08
-14.26
-13.63
-11.67
-9.00
-5.95
-2.75
0.23
2.43
3.29
2.75
1.31
-0.23
-1.20
-1.56
-1.88
-2.89
-4.99
-7.93
-11.07
-13.62
-15.20
-15.67
-15.10
-13.67
-11.56
-9.04
-6.60
-4.76
-3.80
-3.51
-3.12
-1.59
2.09
8.44
17.42
28.45
40.54
52.57
63.39
72.08
77.97
81.20
82.75
84.37
88.08
95.18
105.40
116.54
124.82
126.15
117.58
98.46
70.62
37.76
4.28
-26.01
-50.74
-68.90
-80.79
-87.37
-89.83
-89.48
-87.47
-85.04
-83.35
-83.36
-85.45
-89.14
-93.18
-95.98
-96.27
-93.63
-88.84
-83.41
-78.77
-75.45
-72.86
-69.54
-64.05
-55.85
-45.54
-34.57
-24.70
-16.99
-11.67
-8.17
-5.47
-2.70
0.36
3.39
5.68
6.65
6.25
4.93
3.59
3.02
3.69
5.48
7.93
10.46
12.90
15.41
18.47
22.48
27.65
33.81
40.55
47.31
53.57
58.64
61.89
62.81
61.29
57.77
52.85
47.13
40.89
34.31
27.91
22.90
21.11
24.27
33.05
46.16
60.37
71.40
75.35
69.95
55.39
34.08
9.66
-14.26
-35.03
-51.36
-62.93
-69.96
-72.51
-70.56
-64.43
-55.36
-45.33
-36.83
-31.75
-30.70
-32.81
-36.27
-39.12
-40.05
-38.74
-35.66
-31.65
-27.58
-24.06
-21.32
-19.22
-17.46
-15.88
-14.59
-13.94
-14.29
-15.66
-17.52
-18.95
-19.13
-17.74
-15.24
-12.44
-10.21
-8.92
-8.35
-8.00
-7.66
-7.30
-7.12
-6.99
-6.40
-4.59
-1.18
3.56
8.60
12.49
14.19
13.50
11.21
8.52
6.46
5.34
4.92
4.85
4.95
5.31
6.12
7.40
8.80
9.85
10.03
9.21
7.53
5.47
3.50
2.07
1.42
1.72
2.90
4.66
6.28
6.89
5.89
3.32
-0.18
-3.50
-5.78
-6.84
-7.32
-8.21
-10.19
-13.21
-16.27
-18.11
-18.03
-16.38
-14.53
-14.33
-17.20
-23.53
-32.58
-42.92
-53.05
-61.86
-69.01
-74.81
-80.16
-86.46
-95.81
-110.65
-132.77
-161.95
-194.94
-225.69
-247.14
-253.85
-244.15
-220.77
-189.39
-156.31
-126.31
-101.64
-82.42
-67.87
-57.18
-49.65
-44.60
-40.77
-36.68
-31.06
-23.54
-14.46
-4.54
5.73
16.36
27.71
40.16
53.80
68.43
83.75
99.65
115.93
131.82
145.56
154.37
155.44
147.30
130.89
109.74
88.52
71.28
59.90
53.86
51.32
50.67
51.44
54.34
60.38
69.82
81.38
92.81
101.82
107.04
108.70
108.01
106.37
104.47
101.87
97.44
90.09
79.69
67.27
54.66
43.68
35.39
29.94
26.79
25.34
25.38
26.88
29.66
33.15
36.34
38.29
38.41
36.65
33.35
28.95
23.81
18.21
12.55
7.30
3.05
0.22
-1.35
-2.18
-3.11
-4.94
-7.96
-11.99
-16.36
-20.13
-22.51
-23.01
-21.62
-18.53
-14.13
-8.75
-2.83
2.89
7.50
10.01
9.80
7.09
2.95
-1.08
-3.56
-3.70
-1.81
0.89
2.86
2.93
0.51
-4.13
-10.00
-15.64
-19.51
-20.39
-17.68
-11.61
-3.23
5.97
14.39
20.87
24.82
26.22
25.48
23.28
20.53
18.08
16.72
16.92
18.84
22.22
26.50
30.89
34.64
37.27
38.54
38.73
38.36
38.11
38.38
39.19
40.00
40.01
38.40
34.67
28.90
21.64
13.78
6.35
0.17
-4.39
-7.51
-9.89
-12.43
-15.88
-20.47
-25.88
-31.40
-36.19
-39.66
-41.57
-41.81
-40.33
-36.91
-31.62
-24.94
-17.90
-11.63
-6.94
-3.82
-1.42
1.27
4.84
8.78
11.75
12.37
10.21
6.13
1.80
-1.34
-2.81
-3.16
-3.44
-4.28
-5.57
-6.64
-6.80
-6.01
-4.90
-4.50
-5.43
-7.59
-10.04
-11.65
-11.70
-10.36
-8.50
-7.32
-7.88
-10.32
-14.24
-18.61
-22.27
-24.71
-25.97
-26.56
-27.05
-27.93
-29.21
-30.76
-32.27
-33.31
-33.26
-31.32
-26.76
-19.33
-9.67
0.64
9.59
15.64
18.41
18.86
18.80
19.67
21.98
24.91
27.20
27.82
26.53
23.88
20.64
17.45
14.41
11.45
8.74
6.77
6.20
7.48
10.54
14.60
18.66
21.78
23.47
23.68
22.76
21.19
19.40
17.64
16.18
15.24
14.99
15.43
16.37
17.28
17.56
16.84
15.13
12.74
10.13
7.78
6.06
5.40
6.33
9.37
14.82
22.37
31.00
38.95
44.38
45.95
43.31
37.05
28.23
17.81
6.44
-5.32
-16.68
-26.51
-33.72
-37.91
-39.40
-39.31
-38.60
-37.73
-36.45
-34.39
-31.64
-29.05
-27.80
-28.70
-31.47
-34.76
-36.78
-36.33
-33.25
-28.33
-22.80
-17.74
-13.75
-11.18
-10.20
-11.02
-13.72
-18.15
-23.76
-29.69
-35.02
-39.10
-41.77
-43.13
-43.42
-42.65
-40.52
-36.84
-31.81
-26.26
-21.22
-17.45
-14.86
-12.75
-10.17
-6.74
-2.97
-0.19
0.31
-1.88
-5.97
-10.26
-13.03
-13.30
-11.27
-7.74
-3.75
-0.10
2.75
4.53
5.22
4.83
3.49
1.43
-1.06
-3.63
-5.97
-7.84
-9.14
-9.87
-10.18
-10.22
-10.25
-10.53
-11.13
-12.04
-13.17
-14.45
-15.55
-16.09
-15.52
-13.39
-9.62
-4.58
1.12
6.88
12.26
17.14
21.62
25.84
29.86
33.51
36.36
37.86
37.62
35.63
32.35
28.54
25.04
22.57
21.51
21.92
23.70
26.49
29.83
33.00
35.46
36.93
37.43
37.15
36.33
34.98
33.02
30.41
27.35
24.37
21.91
20.17
18.88
17.55
15.95
14.07
12.27
10.75
9.33
7.53
4.92
1.59
-1.70
-4.06
-4.94
-4.44
-3.31
-2.44
-2.28
-2.62
-3.00
-3.02
-2.71
-2.37
-2.22
-2.01
-1.08
0.92
3.78
6.60
8.29
8.34
7.10
5.77
5.71
7.57
11.16
15.26
18.19
18.65
16.17
11.56
6.39
2.42
0.98
2.39
5.92
10.36
14.32
16.82
17.38
15.95
12.90
8.94
5.13
2.83
3.06
6.27
11.90
18.42
23.83
26.55
25.90
22.48
17.83
13.86
11.99
12.65
15.34
19.20
23.45
27.92
32.83
38.42
44.32
49.52
52.98
54.13
53.15
50.86
47.94
44.42
39.74
33.22
24.92
15.86
7.77
2.31
0.19
0.92
3.13
5.37
6.80
7.48
8.00
8.78
9.61
9.73
8.36
5.22
0.98
-3.07
-5.76
-6.59
-6.18
-5.66
-6.04
-7.66
-10.01
-12.09
-13.32
-13.87
-14.49
-16.01
-18.71
-22.18
-25.50
-27.91
-29.02
-29.03
-28.32
-27.11
-25.36
-22.97
-20.05
-17.27
-15.46
-15.32
-16.92
-19.56
-22.29
-24.33
-25.65
-26.76
-28.43
-31.04
-34.47
-38.08
-41.13
-43.19
-44.16
-44.08
-43.00
-40.90
-37.81
-33.96
-29.77
-25.57
-21.50
-17.46
-13.28
-9.04
-5.06
-1.78
0.51
1.90
2.98
4.33
6.36
9.03
11.84
14.33
16.26
17.83
19.41
21.27
23.36
25.14
25.80
24.74
21.87
17.75
13.31
9.47
6.63
4.70
3.15
1.49
-0.51
-2.61
-4.38
-5.44
-5.56
-5.06
-4.51
-4.44
-5.06
-6.23
-7.39
-8.06
-7.90
-7.01
-5.77
-4.68
-4.00
-3.78
-3.69
-3.29
-2.34
-1.01
0.05
-0.09
-2.16
-6.30
-11.86
-17.62
-22.26
-24.93
-25.58
-24.90
-23.86
-23.13
-22.82
-22.65
-21.94
-20.19
-17.23
-13.26
-8.87
-4.78
-1.48
1.07
3.52
6.78
11.65
18.26
26.05
33.94
40.96
46.50
50.48
53.07
54.40
54.43
53.21
51.03
48.38
45.81
43.46
40.93
37.64
33.11
27.30
20.69
14.01
7.84
2.42
-2.32
-6.52
-10.11
-12.48
-12.72
-10.04
-4.33
3.35
10.76
15.12
14.05
6.22
-8.12
-27.41
-49.29
-71.15
-90.64
-105.75
-115.23
-118.55
-116.08
-108.98
-98.95
-87.79
-77.00
-67.56
-59.90
-53.99
-49.44
-45.57
-41.59
-36.80
-30.86
-23.87
-16.34
-8.95
-2.18
3.87
9.39
14.62
19.42
23.22
25.43
25.79
24.77
23.50
23.12
24.23
26.49
29.08
31.04
32.01
32.22
32.16
32.15
32.07
31.52
30.06
27.50
23.75
18.99
13.45
7.50
1.81
-2.80
-5.74
-6.82
-6.44
-5.31
-4.16
-3.49
-3.36
-3.38
-3.11
-2.14
-0.38
1.90
4.39
6.93
9.85
13.95
20.25
29.28
40.91
54.33
68.19
80.94
90.82
95.72
93.30
81.71
60.62
32.20
1.02
-27.62
-49.61
-63.59
-71.13
-75.29
-78.75
-82.38
-85.39
-86.53
-85.52
-83.27
-81.29
-80.48
-80.39
-79.73
-77.11
-72.22
-65.97
-60.04
-55.87
-53.81
-53.21
-52.67
-50.98
-47.65
-42.97
-37.61
-32.05
-26.50
-20.82
-14.78
-8.41
-1.92
4.43
10.43
15.86
20.29
23.11
23.91
22.73
20.50
18.67
18.48
20.33
23.46
26.56
28.35
28.28
26.57
23.80
20.44
16.78
13.18
10.49
9.87
12.24
17.74
25.47
34.10
42.73
51.30
60.52
71.19
83.35
95.97
107.26
115.32
118.68
116.70
109.31
97.24
81.55
63.94
46.42
30.93
18.70
9.72
2.85
-3.65
-11.30
-20.90
-32.71
-46.67
-62.63
-80.31
-98.92
-117.07
-133.06
-145.19
-152.41
-154.41
-151.60
-144.81
-134.90
-122.74
-109.04
-94.37
-79.14
-63.42
-47.23
-30.60
-13.98
1.58
14.71
24.32
29.99
32.44
33.36
34.84
38.66
45.60
55.39
66.91
78.63
89.11
97.06
101.26
100.79
95.29
85.26
72.09
57.37
42.07
26.03
8.36
-11.49
-32.65
-52.65
-68.44
-77.60
-79.46
-75.36
-67.96
-60.06
-53.88
-50.46
-49.86
-51.35
-53.66
-55.26
-54.77
-51.40
-45.29
-37.48
-29.28
-21.86
-15.93
-11.56
-8.41
-5.95
-3.53
-0.49
3.75
9.46
16.55
24.66
33.30
41.72
49.18
55.06
59.06
61.22
61.96
61.93
61.80
62.23
63.43
65.37
67.49
69.17
69.98
70.13
70.33
71.62
74.44
78.17
81.16
81.26
76.76
67.24
53.73
38.08
22.21
7.44
-5.57
-16.52
-24.92
-30.18
-31.72
-29.52
-24.31
-17.62
-11.12
-6.32
-3.98
-4.02
-5.69
-7.69
-8.77
-7.97
-4.95
-0.01
5.79
10.84
13.04
10.60
2.64
-10.43
-26.65
-43.53
-59.01
-71.99
-82.38
-90.39
-95.85
-97.92
-95.79
-89.40
-79.98
-69.61
-60.22
-52.64
-46.37
-40.41
-34.14
-27.99
-22.92
-19.66
-17.88
-16.33
-13.66
-9.29
-3.93
1.05
4.42
5.97
6.58
7.60
9.95
13.61
17.68
20.92
22.59
22.59
21.69
20.92
21.08
22.37
24.33
26.25
27.42
27.78
27.90
28.74
31.09
35.04
39.79
44.05
46.69
47.15
45.85
43.57
41.00
38.37
35.42
31.84
27.72
23.57
20.05
17.57
16.02
14.82
13.34
11.34
9.16
7.55
7.54
9.93
14.95
22.08
29.88
36.39
39.62
38.04
31.20
19.67
4.78
-11.79
-28.61
-44.73
-59.64
-73.15
-85.16
-95.57
-104.47
-111.97
-118.36
-123.90
-128.69
-132.87
-136.61
-140.26
-144.13
-148.27
-152.21
-155.18
-156.55
-156.22
-154.88
-153.64
-153.71
-155.36
-157.92
-159.84
-159.20
-154.35
-144.11
-127.88
-105.73
-78.48
-47.90
-16.60
12.54
37.11
55.72
68.28
75.62
79.29
80.83
81.66
82.76
84.66
87.62
91.72
96.83
102.72
108.94
114.86
120.00
124.26
128.20
132.95
139.48
148.09
158.04
167.96
176.53
183.27
188.76
194.08
200.17
207.26
214.75
221.65
226.97
230.01
230.17
226.99
219.90
208.46
192.48
172.16
148.16
121.43
93.37
65.43
38.93
14.89
-6.17
-24.07
-39.06
-51.39
-61.14
-68.20
-72.36
-73.50
-71.86
-68.23
-63.75
-59.46
-55.78
-52.36
-48.27
-42.58
-35.10
-26.69
-18.99
-13.71
-11.76
-12.77
-15.35
-17.76
-18.67
-17.83
-16.04
-14.84
-15.56
-18.76
-23.97
-30.16
-36.06
-40.72
-43.92
-46.00
-47.46
-48.47
-48.92
-48.46
-46.84
-44.10
-40.78
-37.64
-35.29
-34.08
-33.94
-34.48
-35.25
-36.00
-36.86
-38.25
-40.67
-44.19
-48.33
-52.04
-54.25
-54.19
-51.77
-47.62
-42.79
-38.18
-34.30
-31.38
-29.22
-27.60
-26.27
-25.23
-24.64
-24.68
-25.44
-26.64
-27.76
-28.09
-27.22
-25.38
-23.20
-21.61
-21.24
-22.11
-23.89
-26.14
-28.72
-31.72
-35.15
-38.48
-40.71
-40.51
-37.14
-30.98
-23.51
-16.75
-12.39
-10.90
-11.61
-13.15
-14.25
-14.30
-13.35
-11.79
-9.99
-8.13
-6.27
-4.54
-3.28
-2.64
-2.46
-2.35
-1.88
-0.84
0.55
2.08
3.52
4.80
5.75
6.03
5.21
3.08
0.01
-3.31
-6.33
-9.11
-12.47
-17.47
-24.74
-33.98
-44.16
-54.24
-63.74
-72.73
-81.26
-88.80
-94.02
-95.16
-90.84
-80.90
-66.62
-50.25
-34.15
-20.08
-8.72
0.26
7.54
13.75
19.05
23.44
27.07
30.50
34.49
39.62
45.90
52.72
59.11
64.53
69.27
74.19
80.27
87.80
96.36
104.92
112.44
118.24
122.02
123.55
122.59
119.01
113.17
106.02
99.14
93.90
91.00
89.89
88.93
86.13
79.98
69.99
56.90
42.29
27.86
14.96
4.10
-4.89
-12.70
-19.83
-26.51
-32.44
-37.33
-41.27
-44.79
-48.71
-53.57
-59.07
-64.05
-67.08
-67.19
-64.66
-61.03
-58.36
-58.18
-60.88
-65.45
-70.17
-73.39
-74.16
-72.52
-69.19
-64.89
-60.10
-54.71
-48.09
-39.49
-28.41
-14.97
-0.07
14.74
27.92
38.25
45.59
50.81
55.33
60.30
66.17
72.26
77.30
79.92
79.46
76.07
70.68
64.44
58.34
52.91
48.11
43.62
39.09
34.48
30.21
27.06
25.59
26.05
28.03
30.70
33.25
35.40
37.43
39.77
42.62
45.54
47.91
49.15
49.30
48.67
47.69
46.37
44.41
41.38
37.16
31.89
25.88
19.55
13.21
7.06
0.83
-6.42
-16.35
-30.65
-50.05
-73.40
-97.33
-117.54
-130.74
-135.95
-134.82
-130.51
-125.75
-121.64
-117.71
-112.89
-106.75
-99.86
-93.29
-87.82
-83.00
-77.53
-70.03
-60.11
-48.52
-37.41
-29.04
-24.64
-23.81
-24.57
-24.44
-21.58
-15.91
-8.87
-2.54
1.74
4.32
6.78
11.00
17.57
25.53
32.60
36.85
37.50
35.54
32.77
30.82
30.18
30.28
30.21
29.66
29.20
30.11
33.42
39.22
46.37
53.35
58.84
62.43
64.44
65.75
67.06
68.61
70.17
71.18
71.10
69.64
66.76
62.67
57.96
53.19
48.80
44.99
41.52
38.24
35.24
33.06
32.33
33.42
35.98
39.11
41.70
42.95
42.43
40.04
35.77
29.73
22.36
14.55
7.58
2.55
-0.40
-2.11
-3.91
-6.92
-11.07
-15.10
-16.89
-14.29
-5.96
7.97
25.53
42.98
55.62
59.17
51.06
31.64
4.21
-25.94
-53.33
-73.87
-85.92
-90.06
-88.41
-83.79
-78.91
-75.89
-75.99
-79.32
-85.14
-92.07
-98.75
-104.11
-107.47
-108.46
-106.90
-102.92
-96.91
-89.72
-82.32
-75.55
-69.78
-64.64
-59.45
-53.38
-46.19
-38.00
-29.35
-20.75
-12.62
-5.26
1.13
6.44
10.75
14.35
17.86
22.00
27.37
34.09
41.73
49.48
56.52
62.62
68.19
73.99
80.54
87.59
94.14
99.22
102.43
104.34
105.84
107.37
108.33
107.23
102.41
93.36
81.23
68.49
58.01
51.63
49.43
49.69
49.83
47.22
40.32
28.94
14.34
-1.10
-14.83
-24.95
-30.92
-33.51
-34.37
-34.93
-35.58
-35.64
-33.63
-28.18
-18.68
-5.61
9.55
24.66
37.10
43.94
42.43
30.69
8.81
-20.63
-52.75
-81.98
-103.82
-116.10
-119.40
-116.17
-109.15
-100.52
-91.58
-83.07
-75.77
-70.48
-67.76
-67.65
-69.32
-71.43
-72.59
-71.93
-69.15
-64.54
-58.49
-51.50
-44.00
-36.39
-29.20
-23.02
-18.22
-14.79
-12.21
-9.83
-7.19
-4.21
-1.27
1.38
3.79
6.46
10.04
14.72
20.02
25.01
28.83
31.17
32.56
34.09
36.84
41.41
47.85
55.80
64.97
75.02
85.49
95.51
103.85
109.19
110.86
109.40
106.37
103.61
102.15
101.66
100.67
97.41
90.89
81.46
70.41
59.13
48.45
38.59
29.52
21.57
15.24
10.90
8.22
6.02
3.05
-1.31
-6.63
-11.78
-15.45
-16.93
-16.38
-14.64
-12.93
-12.41
-14.02
-18.43
-25.93
-36.16
-48.06
-59.97
-70.28
-77.83
-82.38
-84.39
-84.74
-84.25
-83.25
-81.82
-79.95
-77.54
-74.73
-71.69
-68.69
-65.91
-63.37
-60.96
-58.24
-54.52
-49.06
-41.45
-31.87
-21.24
-11.02
-2.68
2.87
5.61
6.43
6.67
7.65
10.28
14.79
20.81
27.66
34.66
41.48
48.17
55.20
63.03
71.71
80.75
89.27
96.60
102.45
107.17
111.55
116.29
121.50
126.48
130.16
131.46
130.05
126.29
120.91
114.40
106.38
95.72
81.03
61.69
38.43
13.12
-11.87
-34.76
-54.91
-72.78
-89.16
-104.66
-119.21
-132.54
-144.50
-155.15
-164.51
-172.29
-177.65
-179.26
-176.15
-168.17
-156.32
-142.73
-129.93
-120.21
-114.64
-112.84
-112.97
-112.47
-109.24
-102.36
-92.38
-80.80
-69.02
-57.50
-45.86
-33.36
-19.69
-5.37
8.62
21.69
34.01
46.26
58.70
70.62
80.35
86.30
88.08
87.13
85.71
85.75
87.58
89.88
90.84
89.38
86.05
82.19
78.78
75.46
70.72
63.22
53.06
42.03
32.83
27.48
26.20
27.59
29.34
29.62
27.76
24.07
19.22
14.05
9.40
6.33
6.01
9.52
16.93
27.06
37.31
44.77
46.93
42.55
32.06
17.17
0.12
-17.11
-33.30
-48.06
-61.52
-73.75
-84.51
-93.21
-99.04
-101.71
-101.48
-99.31
-96.40
-93.44
-90.48
-86.91
-81.91
-75.03
-66.49
-57.11
-47.85
-39.47
-32.21
-25.82
-19.89
-14.30
-9.42
-5.74
-3.70
-3.01
-2.78
-1.74
1.21
6.55
13.94
22.35
30.37
36.73
40.92
43.34
45.20
47.99
52.82
60.00
68.81
78.07
86.47
93.26
98.29
101.62
103.30
103.14
101.02
97.16
92.65
88.76
86.48
85.59
84.65
81.57
74.50
62.79
47.23
29.94
13.24
-0.88
-11.56
-18.95
-23.72
-26.78
-28.46
-28.84
-28.36
-28.05
-29.76
-35.40
-45.73
-59.72
-74.69
-87.42
-95.49
-98.31
-96.94
-93.21
-88.36
-82.63
-75.46
-66.42
-55.84
-44.95
-35.27
-27.90
-22.99
-19.80
-17.32
-14.45
-10.53
-5.55
0.06
5.45
9.99
13.35
15.85
18.27
21.49
26.20
32.57
40.16
48.31
56.35
64.12
71.72
79.20
86.31
92.40
96.64
98.56
98.61
97.93
97.84
98.98
100.89
102.01
100.32
94.28
83.51
68.76
51.45
32.87
13.62
-6.23
-26.81
-48.01
-69.21
-89.55
-108.33
-125.18
-139.93
-152.25
-161.63
-167.37
-169.05
-166.86
-161.86
-155.57
-149.52
-144.66
-141.33
-139.34
-138.10
-136.59
-133.40
-126.88
-115.74
-99.59
-79.34
-56.91
-34.64
-14.54
2.41
16.19
27.47
37.16
46.04
54.20
61.20
65.99
67.35
64.31
56.46
44.38
29.34
12.92
-3.52
-18.89
-32.51
-43.75
-52.17
-57.41
-59.65
-59.75
-58.93
-58.27
-58.36
-59.12
-60.05
-60.82
-61.58
-62.54
-63.73
-64.74
-64.56
-62.03
-56.74
-49.22
-40.92
-33.49
-27.72
-23.21
-18.78
-13.16
-6.04
1.74
8.66
13.45
15.79
16.56
17.26
19.24
22.96
28.05
33.53
38.27
41.38
42.38
41.14
37.78
32.74
26.75
20.25
13.41
6.18
-1.52
-9.42
-16.96
-23.42
-28.37
-31.86
-34.60
-37.48
-41.28
-46.76
-54.31
-63.92
-74.84
-85.06
-91.40
-90.53
-80.30
-61.13
-36.30
-10.87
10.36
24.91
33.15
37.70
41.46
46.25
52.11
57.83
62.07
64.02
63.52
60.81
56.17
49.96
42.59
34.90
27.77
22.18
18.74
17.66
18.75
21.14
23.58
24.63
23.22
19.34
14.44
10.66
10.05
13.25
19.45
26.67
33.02
37.63
40.51
42.40
43.81
44.85
45.13
44.33
42.36
39.41
35.71
31.46
26.97
22.88
20.14
19.92
23.05
29.59
38.85
49.46
60.04
69.41
76.93
82.42
85.84
87.10
86.09
82.66
77.05
69.90
62.56
56.41
52.53
51.32
52.26
54.19
55.90
56.66
56.58
56.17
55.87
55.66
54.98
53.21
50.23
46.62
43.37
41.23
40.33
40.20
40.14
39.75
39.29
39.18
39.71
40.59
41.20
40.80
39.07
36.33
33.31
30.55
28.37
26.75
25.35
24.00
22.44
20.48
17.83
13.90
8.18
0.57
-8.25
-16.76
-22.71
-23.92
-18.97
-7.84
8.16
26.65
45.10
61.55
74.67
83.76
88.29
87.95
82.94
74.38
64.42
55.77
50.60
49.57
51.58
54.29
55.34
53.50
48.95
43.05
37.32
32.89
30.20
29.17
29.27
29.80
29.80
28.10
23.74
16.48
6.98
-3.39
-12.89
-20.37
-25.33
-28.03
-29.01
-28.89
-28.17
-27.26
-26.51
-25.95
-25.30
-23.80
-20.46
-14.23
-4.03
10.89
30.74
54.58
80.16
104.00
122.07
131.10
129.43
117.26
95.81
66.61
30.55
-11.49
-57.77
-104.92
-148.27
-183.28
-207.15
-219.86
-223.64
-221.72
-216.62
-209.56
-200.66
-189.84
-177.69
-165.60
-155.46
-148.62
-145.26
-144.15
-143.02
-139.57
-132.28
-121.30
-108.35
-95.96
-86.33
-80.34
-77.07
-74.64
-71.24
-66.10
-59.90
-54.28
-50.79
-50.26
-52.38
-55.99
-59.70
-62.26
-62.69
-60.26
-54.32
-44.49
-30.72
-13.59
5.65
25.35
43.65
59.03
70.78
79.03
84.55
88.36
91.15
93.32
94.91
95.83
96.20
96.19
95.98
95.56
94.82
93.60
91.99
90.48
89.67
90.12
91.96
94.88
98.33
101.57
103.73
104.13
102.49
99.27
95.75
93.64
94.38
98.48
105.46
113.92
122.36
129.68
135.23
138.65
139.53
137.50
132.61
125.63
118.05
111.48
106.63
102.73
97.89
89.72
76.57
58.16
35.67
11.03
-13.85
-37.66
-59.83
-79.98
-97.68
-112.21
-122.89
-129.60
-132.93
-133.87
-133.53
-132.38
-130.32
-127.05
-122.72
-118.13
-114.43
-112.61
-112.62
-113.65
-114.36
-113.75
-111.57
-108.14
-103.82
-98.76
-92.88
-86.21
-79.33
-73.14
-68.40
-65.35
-63.42
-61.61
-59.14
-55.80
-51.74
-47.30
-42.47
-37.06
-30.98
-24.29
-17.37
-10.53
-3.89
2.58
8.91
14.89
20.26
24.77
28.57
31.84
34.85
37.60
40.00
41.99
43.77
45.72
48.14
50.85
53.28
54.80
55.05
54.29
53.18
52.43
52.22
52.23
51.84
50.55
48.32
45.58
43.01
41.03
39.63
38.30
36.36
33.39
29.49
25.17
21.10
17.70
14.87
12.04
8.49
3.79
-1.97
-8.02
-13.22
-16.74
-18.33
-18.75
-19.15
-20.50
-22.95
-25.68
-27.43
-27.05
-24.31
-19.80
-14.67
-9.87
-5.89
-2.80
-0.52
0.78
0.94
-0.02
-1.71
-3.32
-3.96
-3.32
-1.58
0.48
2.01
2.58
2.29
1.83
1.76
2.43
3.57
4.68
5.45
5.76
5.80
5.54
4.72
2.99
0.31
-2.71
-4.94
-5.52
-4.40
-2.53
-1.33
-1.74
-3.77
-6.41
-8.39
-9.15
-9.14
-9.67
-11.83
-15.79
-20.53
-24.25
-25.44
-23.59
-19.39
-14.25
-9.58
-6.06
-3.54
-1.31
1.21
4.18
7.40
10.50
13.48
16.78
21.05
26.56
32.78
38.48
42.14
42.83
40.55
36.35
31.71
27.66
24.38
21.05
16.73
10.80
3.71
-3.33
-9.09
-12.96
-15.45
-17.72
-20.82
-24.92
-29.26
-32.80
-34.67
-34.73
-33.45
-31.43
-28.80
-25.20
-20.10
-13.36
-5.46
2.47
9.14
13.54
15.19
14.36
11.64
7.85
4.03
1.12
-0.20
0.25
2.11
4.64
7.22
9.44
11.08
11.92
11.52
9.64
6.34
2.35
-0.94
-2.28
-1.09
2.04
5.78
8.73
10.17
10.60
11.25
13.52
18.14
24.78
32.14
38.12
40.65
38.23
30.26
17.29
0.85
-17.09
-34.64
-50.10
-62.36
-70.83
-75.45
-76.76
-75.75
-73.55
-71.34
-69.64
-68.40
-67.24
-65.68
-63.51
-60.84
-57.81
-54.38
-50.58
-46.56
-42.74
-39.90
-38.52
-38.55
-39.21
-39.36
-38.13
-35.31
-31.11
-25.99
-19.92
-12.45
-2.91
8.94
22.66
37.12
51.01
63.48
74.44
84.35
93.96
103.87
114.47
126.05
138.77
152.65
167.22
181.17
192.46
199.20
200.26
195.85
187.49
176.99
165.61
153.36
139.33
122.25
101.41
77.15
50.69
23.76
-1.88
-25.06
-45.39
-63.16
-79.13
-94.19
-108.88
-123.19
-136.46
-147.69
-156.00
-160.79
-162.09
-160.54
-157.26
-153.62
-150.86
-149.61
-149.72
-150.20
-149.73
-147.34
-142.81
-136.66
-129.77
-122.74
-115.59
-108.18
-100.57
-93.28
-87.22
-83.08
-80.69
-78.95
-76.31
-71.54
-64.40
-55.67
-46.60
-38.18
-30.76
-24.05
-17.55
-10.87
-3.81
3.67
11.77
20.78
30.74
41.39
51.92
61.37
68.85
74.00
77.14
79.13
80.91
82.99
85.39
87.48
88.57
88.25
86.69
84.60
82.84
81.88
81.47
80.69
78.41
73.76
66.56
57.47
47.74
38.96
32.55
29.27
29.10
31.01
33.35
34.42
33.00
28.88
22.74
15.92
9.59
4.43
0.62
-1.94
-3.15
-2.63
0.00
4.54
9.98
14.78
17.60
18.12
17.26
16.45
16.90
18.69
20.87
22.14
21.73
19.93
17.55
15.30
13.00
9.62
3.98
-4.26
-14.07
-23.45
-30.31
-33.75
-34.45
-34.33
-35.61
-39.99
-48.15
-60.06
-75.24
-92.79
-111.38
-128.95
-142.88
-150.98
-152.49
-148.51
-141.46
-133.86
-126.96
-120.46
-113.09
-103.84
-92.84
-81.44
-71.26
-63.04
-56.31
-49.51
-41.15
-30.67
-18.80
-7.19
2.50
9.39
13.65
15.96
17.27
18.17
18.87
19.26
19.21
18.73
17.77
16.11
13.31
8.88
2.55
-5.60
-15.12
-25.28
-35.27
-44.42
-52.28
-58.85
-64.60
-70.63
-78.34
-88.77
-102.20
-117.84
-134.11
-149.02
-160.80
-167.89
-168.98
-162.84
-148.69
-126.65
-98.26
-66.56
-35.42
-8.28
12.90
28.07
38.59
46.23
52.11
56.58
59.51
61.11
62.06
63.52
66.36
70.58
75.14
78.44
79.04
76.39
70.92
63.96
56.94
50.96
46.44
43.41
41.49
40.32
39.63
39.44
39.78
40.84
42.91
46.27
51.11
57.36
64.62
72.34
79.80
86.45
92.08
96.61
99.97
102.09
102.94
102.80
102.50
103.41
106.78
113.55
123.74
136.40
149.88
162.27
171.88
177.74
179.72
178.56
175.26
170.70
165.08
158.10
149.27
138.50
126.55
114.69
104.14
95.28
87.44
79.55
70.63
60.40
49.47
38.75
28.97
20.34
12.64
5.63
-0.89
-6.74
-11.78
-15.90
-19.15
-21.82
-24.25
-26.78
-30.06
-34.46
-40.21
-46.85
-53.57
-59.67
-65.19
-71.07
-78.87
-89.79
-103.68
-118.67
-131.49
-138.95
-139.05
-131.58
-117.82
-99.67
-78.71
-55.89
-31.91
-7.82
14.68
33.70
47.67
56.12
59.87
60.53
59.82
58.86
57.98
57.39
57.43
58.96
62.75
69.00
76.60
83.26
85.96
82.01
70.02
50.29
24.84
-3.27
-30.77
-54.99
-74.27
-88.10
-96.86
-101.52
-103.23
-102.79
-100.70
-97.15
-92.27
-86.22
-79.20
-71.45
-63.20
-54.70
-46.25
-38.24
-31.20
-25.60
-21.54
-18.68
-16.23
-13.20
-8.98
-3.36
3.19
9.85
15.78
20.37
23.31
24.62
24.64
24.07
24.00
25.51
29.43
35.73
43.25
50.28
55.48
58.39
59.76
60.65
61.76
62.85
62.95
61.18
57.71
53.74
51.06
51.00
53.71
58.11
62.46
65.34
65.90
64.20
60.83
56.53
52.01
47.90
44.52
41.91
40.00
38.52
37.47
36.93
37.10
38.02
39.39
40.49
40.66
39.53
37.23
34.14
30.39
25.79
19.83
12.06
2.71
-7.48
-17.30
-25.61
-31.87
-36.06
-38.65
-40.26
-41.59
-43.26
-45.82
-49.81
-55.53
-62.93
-71.55
-80.81
-90.04
-98.59
-105.86
-111.29
-114.23
-114.30
-111.55
-106.78
-101.40
-96.74
-93.38
-90.42
-85.40
-75.30
-57.99
-33.68
-5.10
23.21
47.09
64.20
74.43
79.04
79.27
75.22
66.31
52.32
34.62
16.12
0.32
-10.38
-15.72
-17.69
-19.15
-22.26
-27.39
-33.37
-38.23
-40.45
-39.64
-36.56
-32.46
-28.29
-24.43
-20.47
-15.74
-9.91
-3.22
3.62
9.92
15.35
20.30
25.57
31.94
39.62
48.38
57.57
66.61
75.03
82.41
88.01
90.80
89.76
84.48
75.47
64.26
52.62
41.83
32.24
23.30
13.99
3.56
-8.26
-21.00
-33.80
-45.71
-55.75
-62.95
-66.86
-67.75
-66.54
-64.66
-63.29
-63.12
-63.97
-65.10
-65.51
-64.36
-61.16
-55.87
-49.40
-43.06
-38.58
-37.32
-39.58
-44.18
-49.07
-52.33
-53.25
-52.80
-52.83
-54.69
-58.28
-61.98
-63.85
-62.69
-58.98
-54.17
-50.02
-47.38
-46.11
-45.57
-45.23
-45.06
-45.20
-45.60
-45.62
-44.41
-41.59
-37.65
-33.91
-31.68
-31.94
-34.61
-39.00
-43.91
-48.20
-50.82
-50.99
-48.45
-43.84
-38.55
-34.27
-32.30
-32.88
-35.18
-37.80
-39.51
-40.29
-40.98
-42.65
-45.77
-49.68
-53.04
-54.54
-53.86
-51.50
-48.25
-44.48
-39.91
-33.90
-26.12
-17.06
-7.88
0.15
6.28
10.54
13.50
15.57
16.81
17.17
17.14
18.08
22.09
30.71
43.89
59.54
74.05
84.06
88.15
87.48
85.37
85.82
91.64
103.59
120.05
137.74
152.67
160.94
159.89
148.90
129.42
104.71
78.65
54.41
33.48
15.69
-0.13
-14.90
-28.75
-41.06
-50.90
-57.73
-61.39
-61.73
-58.04
-49.10
-33.76
-11.69
15.83
46.06
75.64
101.73
122.69
138.31
149.14
155.94
159.08
158.36
153.81
145.88
135.50
124.05
112.51
101.33
90.55
79.97
69.39
58.82
48.48
38.71
30.13
23.44
19.34
18.30
20.48
25.72
33.33
41.90
48.87
50.92
44.73
28.44
2.96
-27.81
-58.36
-83.48
-100.26
-108.67
-110.66
-108.60
-104.17
-98.08
-90.89
-83.53
-77.32
-73.39
-72.01
-72.32
-73.11
-73.29
-72.68
-71.68
-70.82
-70.34
-70.03
-69.47
-68.21
-65.84
-62.05
-56.80
-50.53
-44.17
-39.17
-36.77
-37.41
-40.25
-43.65
-45.63
-44.82
-41.13
-35.60
-29.58
-24.00
-18.97
-13.92
-8.60
-3.49
0.12
0.69
-2.57
-9.69
-19.67
-31.05
-42.27
-51.87
-58.26
-59.98
-56.03
-46.52
-32.85
-17.31
-2.48
9.87
19.07
25.54
29.83
32.25
32.68
30.97
27.47
23.19
19.48
17.36
17.07
17.90
18.76
18.55
16.68
12.83
6.78
-1.82
-13.33
-27.61
-43.89
-60.66
-76.05
-88.49
-96.74
-100.11
-98.36
-91.87
-81.73
-69.78
-58.28
-48.98
-42.74
-39.02
-36.55
-33.92
-30.50
-26.33
-21.84
-17.56
-13.63
-10.11
-7.03
-4.63
-3.08
-2.34
-2.05
-1.73
-0.96
0.29
1.73
2.88
3.38
3.30
2.85
2.15
1.22
-0.15
-2.24
-5.10
-8.20
-10.60
-11.44
-10.27
-7.48
-4.08
-1.27
0.13
-0.17
-2.15
-5.43
-9.68
-14.15
-17.53
-18.01
-13.57
-3.09
13.33
33.89
55.50
74.85
89.19
97.37
99.78
98.14
95.42
94.76
98.86
109.28
126.17
148.15
172.60
196.02
214.54
224.36
222.74
208.68
184.00
153.23
122.63
98.40
84.52
81.58
86.59
94.41
99.57
98.15
88.63
71.53
48.98
23.50
-2.83
-28.58
-53.01
-75.81
-96.64
-115.16
-130.96
-143.64
-152.83
-158.25
-159.61
-156.87
-150.42
-141.37
-131.13
-121.36
-112.90
-105.87
-99.30
-91.98
-82.88
-71.84
-59.48
-46.60
-34.00
-22.01
-10.70
-0.05
9.85
18.54
25.73
31.38
35.92
40.33
45.90
53.50
63.17
73.77
83.48
90.76
94.92
96.57
96.78
96.40
95.27
92.44
87.02
78.93
69.43
60.40
53.38
48.39
43.93
37.32
25.99
8.66
-13.96
-39.24
-63.23
-81.96
-92.73
-94.98
-90.36
-81.91
-72.74
-64.97
-59.20
-55.04
-51.72
-48.76
-45.94
-43.07
-39.72
-35.36
-29.82
-23.60
-17.97
-14.26
-13.29
-15.17
-19.35
-25.12
-31.82
-38.77
-45.00
-49.57
-51.52
-50.60
-47.27
-42.61
-37.43
-31.57
-23.94
-12.98
1.98
19.86
37.26
49.62
52.90
45.46
28.91
7.33
-14.39
-32.81
-46.46
-55.60
-61.01
-62.67
-59.83
-51.95
-39.77
-25.56
-12.35
-2.44
3.64
7.37
11.32
17.64
27.26
39.49
52.68
64.94
74.87
82.04
86.93
90.42
93.37
96.49
100.08
104.34
109.41
115.25
121.79
128.43
134.31
138.07
138.45
134.70
126.64
114.79
100.10
83.73
66.78
50.04
33.93
18.53
3.50
-11.72
-27.63
-44.64
-62.67
-81.12
-98.61
-113.53
-124.52
-131.33
-134.97
-137.49
-141.06
-146.96
-154.77
-162.63
-167.93
-168.51
-163.41
-153.30
-140.01
-125.81
-112.72
-101.82
-93.07
-85.53
-77.79
-68.94
-58.55
-47.11
-35.33
-23.73
-12.47
-1.53
9.08
19.09
28.11
35.84
42.23
47.43
51.82
55.62
59.13
62.69
66.51
70.24
72.94
73.10
69.38
61.53
50.69
39.13
29.24
22.59
19.28
18.12
17.16
14.50
8.78
-0.61
-13.41
-28.76
-45.09
-60.53
-73.18
-81.79
-86.10
-86.97
-85.75
-83.80
-81.68
-79.40
-76.42
-72.31
-67.11
-61.14
-54.85
-48.50
-42.15
-35.96
-30.26
-25.64
-22.74
-21.87
-22.73
-24.79
-27.05
-28.45
-27.97
-24.68
-18.16
-8.48
3.51
16.33
28.43
38.80
47.17
53.78
59.12
63.49
67.01
69.55
71.30
72.45
73.17
73.65
73.75
73.54
73.18
73.18
73.97
75.50
77.24
78.43
78.61
77.81
76.81
76.09
75.89
75.71
74.82
72.55
68.49
62.77
55.87
48.69
42.23
37.40
34.74
34.07
34.60
35.11
34.65
32.77
29.83
26.52
23.37
20.41
17.04
12.61
6.77
-0.24
-7.75
-14.96
-21.37
-26.97
-31.91
-36.54
-40.80
-44.70
-48.24
-51.70
-55.32
-58.90
-61.57
-62.01
-59.62
-55.04
-50.18
-47.41
-48.12
-51.90
-56.63
-59.88
-60.22
-58.01
-54.75
-52.09
-50.59
-49.62
-47.78
-43.77
-37.16
-28.21
-17.57
-5.87
6.62
19.76
33.57
47.78
61.99
75.51
87.59
97.58
105.27
110.81
114.66
117.26
118.72
118.62
116.19
110.95
103.11
93.60
83.60
74.17
65.47
56.81
47.13
35.59
22.18
7.62
-6.90
-20.15
-31.40
-40.49
-47.76
-54.04
-60.68
-69.21
-80.92
-96.22
-114.20
-132.80
-149.66
-163.03
-172.41
-178.23
-181.13
-181.39
-178.75
-173.14
-165.44
-157.66
-152.18
-150.49
-152.43
-156.03
-158.71
-158.61
-155.41
-150.05
-144.01
-138.25
-133.08
-128.31
-123.90
-120.25
-118.01
-117.34
-117.42
-116.21
-110.92
-99.14
-79.78
-53.78
-24.01
5.79
32.23
53.37
68.88
79.55
86.54
90.55
91.90
90.90
88.24
85.08
82.42
80.68
79.63
78.54
76.82
74.61
72.43
70.86
69.97
69.46
68.90
68.22
67.76
67.83
68.40
68.94
68.63
66.98
63.94
60.04
55.92
52.08
48.54
45.13
41.56
37.58
33.05
27.75
21.47
14.15
6.04
-2.20
-9.78
-15.88
-19.89
-21.36
-20.06
-15.74
-8.36
1.83
14.14
27.44
40.39
51.56
59.99
65.26
67.71
68.25
68.19
68.70
70.39
73.24
76.83
80.86
85.33
90.59
96.84
103.59
109.69
113.72
114.99
114.18
113.17
113.97
117.63
123.42
129.36
133.19
133.65
130.98
126.37
120.99
115.42
109.43
102.52
94.54
85.94
77.63
70.64
65.62
62.86
62.11
62.83
64.23
65.44
65.67
64.43
61.49
56.90
51.00
44.32
37.54
31.44
26.78
24.00
23.09
23.40
23.98
23.92
22.52
19.55
15.33
10.51
5.76
1.58
-1.93
-5.08
-8.23
-11.60
-15.04
-18.16
-20.59
-22.27
-23.55
-25.02
-27.04
-29.53
-31.93
-33.53
-34.09
-34.06
-34.52
-36.57
-40.71
-46.43
-52.29
-56.52
-57.79
-55.99
-52.12
-48.04
-45.42
-45.16
-47.14
-50.52
-54.29
-57.75
-60.55
-62.50
-63.21
-62.12
-58.94
-53.89
-47.88
-42.41
-39.04
-39.15
-43.54
-52.34
-64.81
-79.35
-93.87
-106.32
-115.28
-120.39
-122.39
-122.73
-122.85
-123.38
-124.22
-124.63
-123.96
-122.19
-120.09
-118.74
-118.72
-119.87
-120.99
-120.76
-118.17
-113.24
-106.92
-100.54
-95.14
-91.10
-88.18
-85.77
-83.24
-80.10
-75.58
-69.03
-60.04
-48.95
-36.90
-25.59
-16.42
-10.04
-5.93
-2.83
0.60
5.58
12.98
23.35
37.10
54.43
74.94
97.32
119.63
139.51
155.09
165.36
170.09
169.40
163.27
151.68
135.07
114.88
93.77
74.95
61.32
54.13
52.69
54.90
58.33
61.17
62.67
62.65
61.11
58.17
53.79
47.84
40.52
32.57
25.25
19.89
17.27
17.33
20.20
25.48
32.18
39.00
44.91
49.58
53.21
55.89
57.35
59.41
63.83
71.40
81.24
91.13
98.55
101.40
98.58
90.56
82.91
81.20
88.38
102.94
120.59
137.55
152.70
167.53
184.88
211.67
252.00
304.81
363.62
420.27
468.86
507.21
535.68
525.46
458.76
336.56
182.10
26.47
-108.08
-213.46
-291.26
-346.62
-384.14
-401.52
-397.42
-372.50
-333.03
-289.45
-252.62
-230.18
-224.64
-233.42
-246.83
-255.05
-251.22
-235.06
-211.76
-188.60
-171.53
-163.55
-164.55
-169.78
-174.04
-173.54
-167.55
-157.00
-143.03
-125.87
-105.56
-82.79
-58.27
-34.09
-13.08
1.88
9.39
10.34
7.36
3.47
0.50
-0.68
-0.25
1.42
4.18
8.14
13.42
19.73
26.22
31.57
34.81
35.31
33.18
28.98
23.57
18.04
13.35
10.16
8.42
7.53
6.48
4.52
1.34
-2.80
-7.28
-11.60
-15.28
-18.00
-19.68
-20.56
-21.26
-22.86
-26.17
-31.07
-36.43
-40.35
-41.17
-38.30
-32.46
-25.02
-17.17
-9.39
-1.26
7.60
16.89
25.44
31.87
35.22
35.60
33.88
31.15
28.03
24.66
21.05
17.51
14.82
13.86
15.04
18.08
22.22
26.42
29.87
32.11
33.01
32.47
30.52
27.38
23.58
19.89
16.90
14.83
13.56
12.80
12.27
11.69
10.75
8.87
5.44
0.05
-7.29
-15.88
-24.76
-32.97
-39.95
-45.50
-49.65
-52.20
-52.88
-51.63
-48.83
-45.25
-41.92
-39.73
-39.15
-40.06
-41.74
-43.30
-44.15
-44.17
-43.27
-41.21
-37.69
-32.51
-25.66
-17.42
-8.69
-0.78
5.18
9.40
12.92
16.88
21.50
26.11
29.69
31.34
30.99
29.62
29.95
35.18
47.38
66.42
90.16
115.11
137.08
152.28
153.04
135.37
102.30
63.49
29.16
4.68
-10.16
-18.56
-23.85
-28.13
-31.27
-32.69
-32.80
-33.39
-36.82
-43.93
-53.78
-63.70
-70.77
-72.13
-66.72
-55.90
-43.33
-33.43
-29.64
-33.28
-43.05
-56.05
-66.69
-69.82
-62.02
-42.45
-12.28
26.51
68.53
109.33
142.89
162.94
164.64
147.25
114.91
75.95
39.89
13.99
1.26
-0.17
4.92
11.68
17.36
21.31
24.11
26.23
27.66
28.15
27.27
24.05
18.12
10.20
1.83
-5.43
-11.05
-15.75
-21.00
-28.42
-39.76
-54.71
-70.40
-82.97
-89.74
-90.87
-89.15
-88.67
-93.32
-107.22
-131.71
-164.38
-199.28
-228.65
-245.92
-247.70
-234.77
-200.78
-148.39
-89.03
-36.18
4.03
35.11
63.82
96.63
134.23
173.35
207.63
232.17
242.19
232.24
202.45
159.60
115.14
79.15
55.78
41.76
31.72
22.51
14.69
10.75
11.43
14.50
15.72
11.15
-1.04
-18.63
-36.61
-49.15
-52.35
-46.14
-33.75
-20.35
-10.87
-9.22
-16.38
-30.49
-47.81
-62.75
-70.83
-69.29
-57.92
-36.35
-8.99
16.96
35.35
44.19
45.21
41.73
36.52
31.08
26.15
22.15
20.46
22.82
30.14
40.72
50.05
53.04
45.42
26.10
-2.07
-32.54
-57.59
-71.29
-71.69
-60.94
-43.36
-23.50
-4.58
11.39
23.60
31.62
35.14
33.81
28.15
20.86
15.92
16.90
24.75
37.31
50.20
58.87
61.14
56.98
48.35
38.11
28.86
22.22
18.57
17.42
17.58
18.23
17.84
15.14
9.52
1.50
-7.48
-15.47
-21.05
-23.96
-24.87
-25.10
-25.34
-25.46
-24.70
-22.51
-19.20
-15.77
-13.47
-12.89
-13.72
-14.84
-15.11
-14.29
-13.12
-12.93
-14.52
-17.54
-20.78
-22.91
-23.47
-23.08
-22.94
-24.03
-26.63
-30.16
-33.81
-36.91
-39.26
-40.67
-40.65
-38.29
-32.66
-23.52
-11.87
0.34
10.69
17.39
19.97
19.17
16.66
13.94
11.83
10.28
8.92
7.52
6.58
6.99
9.41
13.84
19.16
23.75
26.33
26.37
24.48
21.84
19.60
18.27
17.71
17.28
16.37
14.66
12.32
9.74
7.31
5.30
3.73
2.66
2.28
2.84
4.65
7.54
11.00
14.31
17.01
19.26
21.88
25.74
31.58
39.57
49.39
60.51
72.03
82.72
91.25
96.52
98.34
97.88
97.39
99.19
104.66
113.42
123.67
132.79
138.64
140.12
137.24
130.66
121.05
109.06
95.40
81.02
67.32
55.93
48.08
44.14
43.28
43.36
42.39
39.15
34.06
28.29
22.92
18.26
13.55
7.79
0.07
-8.93
-17.09
-22.00
-22.55
-19.63
-15.35
-11.86
-9.52
-8.05
-5.88
-1.47
4.90
10.45
11.00
4.04
-8.97
-22.50
-31.98
-33.24
-24.34
-7.38
11.20
23.62
25.10
16.19
2.10
-16.55
-38.68
-62.08
-84.90
-107.70
-132.82
-161.46
-192.37
-222.59
-258.89
-305.31
-359.12
-413.14
-461.60
-502.63
-536.91
-566.23
-593.51
-635.02
-701.09
-788.44
-881.85
-963.70
-1020.73
-1046.22
-1040.34
-932.12
-704.84
-406.39
-116.23
112.94
271.50
373.62
437.36
476.67
500.36
501.55
477.91
437.56
395.17
362.13
341.95
332.41
329.79
331.01
324.53
304.45
274.23
243.39
219.66
205.34
198.72
197.38
199.03
196.08
184.68
167.13
149.94
139.09
138.01
144.41
157.06
174.87
193.78
210.36
222.90
230.53
232.11
225.95
211.07
188.79
161.73
132.04
102.01
73.96
49.80
30.47
16.02
5.97
0.19
-1.67
-0.27
3.21
7.25
10.33
11.52
10.74
8.60
6.24
4.39
3.26
2.63
2.25
2.13
2.34
2.68
2.74
2.29
1.46
1.06
1.94
4.28
7.24
9.16
8.49
4.99
0.09
-3.97
-5.53
-4.55
-2.72
-2.43
-5.09
-10.30
-16.13
-20.49
-22.40
-22.41
-21.87
-21.68
-21.52
-19.98
-15.63
-8.08
1.36
10.43
17.06
20.35
20.89
19.90
18.52
17.10
15.40
13.04
9.86
6.08
2.07
-1.54
-3.90
-4.06
-1.21
4.71
12.62
20.29
25.20
25.52
21.10
13.62
5.70
-0.35
-3.52
-4.29
-4.02
-4.25
-6.04
-9.64
-14.65
-20.11
-24.91
-28.19
-29.50
-29.13
-27.79
-26.53
-25.93
-25.75
-24.99
-22.45
-17.53
-10.48
-2.44
5.03
10.70
14.02
15.46
16.35
18.02
21.21
25.70
30.41
33.79
34.04
29.73
20.47
7.16
-8.51
-24.09
-36.89
-44.29
-44.54
-37.25
-25.06
-12.55
-2.53
3.41
4.24
-0.42
-11.43
-27.63
-46.23
-63.36
-74.75
-77.32
-70.83
-57.68
-41.90
-27.47
-16.70
-9.95
-6.10
-3.44
-0.44
3.36
7.77
12.36
16.81
21.07
24.71
26.90
26.81
24.33
20.30
16.57
15.06
16.98
22.01
28.31
33.45
35.53
33.96
29.72
24.58
20.12
17.09
15.21
13.59
11.63
9.53
8.09
7.99
9.54
12.29
15.44
18.38
20.57
21.91
22.26
21.37
19.08
15.57
11.18
6.59
2.30
-1.59
-5.14
-8.29
-10.58
-11.21
-9.72
-6.15
-1.37
3.40
7.04
8.94
9.07
7.84
5.76
3.22
0.37
-2.64
-5.47
-7.67
-8.73
-8.29
-6.44
-3.62
-0.78
1.15
1.48
0.09
-2.71
-6.00
-8.78
-10.29
-10.10
-8.44
-5.80
-2.93
-0.61
0.68
0.80
0.08
-0.95
-1.74
-1.94
-1.43
-0.30
1.25
3.01
4.76
6.19
6.90
6.48
4.80
2.22
-0.47
-2.32
-2.56
-1.09
1.40
3.62
4.44
3.01
-0.73
-5.93
-11.27
-15.27
-17.03
-16.32
-13.79
-10.56
-7.91
-6.75
-7.36
-9.35
-11.75
-13.39
-13.11
-10.43
-5.73
-0.15
4.89
8.11
9.02
8.06
6.02
3.74
1.60
-0.42
-2.56
-4.71
-6.37
-7.02
-6.36
-4.84
-3.44
-2.98
-3.64
-4.76
-5.25
-4.30
-1.90
1.19
3.76
4.81
4.13
2.15
-0.24
-2.40
-4.01
-5.22
-6.30
-7.32
-7.91
-7.43
-5.47
-2.32
0.90
2.71
1.92
-1.30
-5.63
-9.14
-10.56
-10.23
-9.67
-10.74
-14.12
-18.73
-22.25
-22.42
-18.46
-11.34
-3.42
3.00
6.51
7.09
5.72
3.81
2.36
1.71
1.64
1.57
1.34
1.07
0.90
1.06
1.54
2.17
2.87
3.61
4.39
5.21
6.02
6.77
7.34
7.57
7.31
6.39
4.78
2.64
0.45
-1.11
-1.49
-0.59
1.06
2.57
3.17
2.58
0.85
-1.79
-5.10
-8.86
-12.71
-16.24
-18.98
-20.68
