1624789833.00
64.000000
-0.00
-0.00
-0.00
-0.00
-0.00
-0.00
-0.00
-0.00
-0.00
-0.00
0.00
0.01
0.01
-0.00
-0.03
-0.05
-0.05
0.00
0.13
0.36
0.66
1.01
1.37
1.72
2.06
2.40
2.79
3.25
3.81
4.43
5.09
5.73
6.33
6.92
7.54
8.26
9.10
10.13
11.26
12.38
13.40
14.31
15.18
16.19
17.55
19.36
21.81
24.66
27.65
30.52
33.18
35.74
38.54
42.00
46.35
51.89
58.22
64.86
71.33
77.44
83.38
89.68
96.92
105.46
115.58
126.68
138.00
148.89
159.18
169.18
179.64
191.68
203.61
217.19
232.72
250.37
269.34
287.44
300.86
305.22
296.78
273.96
238.25
192.97
142.50
90.64
40.03
-8.31
-54.02
-97.30
-138.26
-177.23
-215.24
-253.37
-292.56
-332.10
-369.86
-401.88
-423.96
-432.59
-426.41
-407.02
-378.36
-346.01
-314.78
-287.96
-266.04
-247.72
-230.73
-213.04
-194.11
-174.10
-154.09
-134.55
-115.73
-97.12
-78.31
-59.68
-42.11
-27.67
-17.71
-13.13
-12.77
-14.73
-16.28
-15.20
-11.05
-4.24
3.32
10.41
16.01
20.77
25.64
31.24
37.51
42.73
45.32
43.57
37.82
29.30
20.66
14.49
11.96
13.29
16.81
21.08
24.43
26.82
28.73
30.85
33.53
35.66
36.11
33.28
27.28
18.95
10.64
4.75
2.42
3.90
7.43
11.45
14.19
15.58
16.20
17.03
18.73
20.50
21.36
19.70
15.42
9.06
2.67
-1.54
-2.44
0.11
4.24
8.14
9.80
9.10
6.81
4.54
3.73
4.33
5.83
6.60
6.12
4.16
1.97
1.04
2.08
5.20
8.77
11.43
11.60
9.50
5.95
2.58
0.81
0.70
1.99
3.25
4.01
3.84
3.59
4.32
6.43
9.88
13.02
14.55
12.95
8.53
2.26
-3.96
-8.30
-10.23
-9.63
-7.78
-5.29
-3.01
-0.65
2.24
5.68
9.50
12.23
12.89
10.34
5.11
-1.80
-8.44
-12.96
-14.69
-13.37
-10.18
-5.91
-1.73
2.25
6.14
9.99
13.81
16.53
17.41
15.27
10.37
3.29
-4.18
-10.04
-13.13
-12.71
-9.80
-5.38
-1.18
2.20
4.72
6.72
8.85
10.62
11.62
10.56
7.23
1.73
-4.51
-9.52
-11.94
-10.80
-6.96
-1.48
3.78
8.02
11.09
13.37
15.56
17.23
17.92
16.24
11.93
5.17
-2.34
-8.26
-10.88
-9.07
-3.86
3.29
9.97
15.01
18.04
19.63
20.80
21.54
21.68
19.92
15.93
9.67
2.67
-2.91
-5.46
-3.95
0.57
6.66
12.01
15.58
17.10
17.25
17.16
16.93
16.50
14.66
11.06
5.54
-0.62
-5.50
-7.71
-6.37
-2.65
1.96
5.16
6.07
4.70
2.22
0.31
-0.43
0.17
0.83
0.77
-0.84
-3.40
-5.53
-6.10
-4.20
-0.71
3.25
5.69
5.94
3.98
1.02
-1.30
-2.29
-1.61
-0.42
0.53
0.32
-0.67
-1.39
-0.96
1.40
4.82
8.30
10.07
9.65
7.11
3.66
0.89
-0.54
-0.21
0.86
2.14
2.80
3.15
3.96
5.70
8.71
11.87
14.19
14.11
11.54
6.98
2.06
-1.34
-2.41
-0.83
1.97
4.77
5.92
5.13
3.06
0.85
0.06
0.86
2.95
4.44
3.97
0.38
-5.78
-12.61
-18.08
-20.08
-18.53
-14.09
-8.88
-4.31
-1.01
1.13
3.04
4.64
5.79
5.41
3.53
0.48
-2.45
-4.02
-4.37
-4.16
-5.20
-8.10
-12.80
-17.46
-19.94
-18.94
-14.24
-7.74
-1.49
2.06
2.21
-0.92
-5.70
-9.84
-11.71
-9.96
-5.21
1.46
7.71
12.15
14.17
14.11
13.16
11.67
9.94
7.14
3.28
-1.58
-6.29
-9.58
-11.20
-11.26
-11.23
-11.72
-13.01
-13.68
-12.06
-7.22
0.53
8.73
14.92
16.71
14.16
8.58
2.78
-0.54
-0.25
3.80
9.82
16.24
21.16
24.11
25.23
25.15
24.80
24.08
22.89
20.11
15.38
8.42
0.39
-6.76
-11.29
-11.76
-8.79
-3.64
1.23
4.45
5.58
5.42
5.38
5.78
6.45
5.71
2.62
-3.35
-10.83
-17.32
-20.63
-19.26
-14.15
-7.10
-1.04
2.45
2.97
1.60
0.20
-0.41
0.10
0.39
-0.45
-3.26
-7.31
-10.89
-12.49
-10.92
-7.00
-2.05
1.67
3.18
2.32
0.20
-1.56
-2.33
-1.84
-1.32
-1.49
-3.09
-5.48
-7.26
-7.30
-4.76
-0.60
3.92
6.72
7.03
4.88
1.52
-1.30
-2.78
-2.53
-1.69
-1.02
-1.47
-2.66
-3.54
-3.20
-0.89
2.48
5.84
7.34
6.45
3.26
-0.90
-4.29
-6.06
-5.73
-4.37
-2.75
-1.95
-1.79
-1.46
-0.23
2.51
5.81
8.56
8.95
6.57
1.68
-4.10
-8.68
-10.98
-10.35
-7.89
-4.52
-1.67
0.42
2.11
3.84
6.17
8.41
9.95
9.40
6.62
1.77
-3.79
-8.28
-10.68
-10.16
-7.51
-3.41
0.73
4.43
7.66
10.52
13.36
15.45
16.24
14.50
10.25
3.81
-3.28
-9.07
-12.38
-12.29
-9.59
-5.11
-0.41
3.86
7.51
10.57
13.34
15.08
15.31
12.83
7.76
0.50
-7.29
-13.52
-16.85
-16.32
-12.80
-7.27
-1.61
3.32
7.17
10.08
12.53
14.02
14.19
11.85
6.97
-0.19
-7.98
-14.22
-17.44
-16.62
-12.72
-6.98
-1.52
2.69
5.41
7.10
8.66
9.92
10.63
9.46
6.08
0.40
-6.19
-11.66
-14.51
-13.64
-9.94
-4.56
0.41
4.09
6.24
7.46
8.71
9.86
10.64
9.63
6.35
0.62
-6.19
-11.93
-14.89
-13.79
-9.46
-3.21
2.62
6.81
8.95
9.64
10.04
10.28
10.30
8.78
5.21
-0.66
-7.52
-13.21
-16.05
-14.81
-10.42
-4.29
1.17
4.78
6.17
6.11
5.85
5.70
5.69
4.57
1.85
-2.82
-8.24
-12.47
-14.00
-11.84
-7.13
-1.49
2.60
4.13
3.05
0.62
-1.35
-2.21
-1.73
-1.29
-1.73
-3.84
-6.89
-9.34
-9.88
-7.56
-3.32
1.50
4.72
5.52
3.84
0.92
-1.53
-2.76
-2.41
-1.64
-1.19
-1.94
-3.41
-4.48
-4.19
-1.83
1.62
4.98
6.33
5.10
1.43
-3.27
-7.12
-9.15
-8.74
-6.90
-4.39
-2.47
-1.24
-0.20
1.19
3.61
6.38
8.83
9.46
7.93
4.25
-0.38
-4.33
-6.69
-6.71
-5.16
-2.58
-0.09
2.14
4.36
6.77
9.65
12.11
13.41
12.21
8.48
2.54
-4.07
-9.43
-12.36
-11.95
-8.96
-4.16
0.87
5.45
9.32
12.44
15.14
16.77
16.94
14.60
9.87
3.12
-4.11
-9.98
-13.36
-13.41
-10.93
-6.67
-2.14
2.12
5.94
9.32
12.46
14.54
14.99
12.62
7.54
0.22
-7.60
-13.81
-17.07
-16.51
-13.05
-7.75
-2.48
1.98
5.40
8.03
10.41
12.09
12.66
10.87
6.64
0.12
-7.12
-13.01
-16.14
-15.43
-11.72
-6.07
-0.40
4.37
7.91
10.45
12.60
13.98
14.23
12.10
7.44
0.41
-7.39
-13.75
-17.07
-16.22
-12.09
-5.97
-0.07
4.53
7.45
9.14
10.49
11.37
11.56
9.74
5.59
-0.95
-8.34
-14.37
-17.37
-16.15
-11.67
-5.35
0.46
4.63
6.83
7.72
8.43
9.00
9.31
7.97
4.52
-1.24
-7.91
-13.32
-15.78
-14.14
-9.41
-3.09
2.37
5.83
6.98
6.70
6.33
6.21
6.36
5.46
2.95
-1.61
-7.07
-11.50
-13.41
-11.71
-7.41
-1.91
2.46
4.70
4.60
3.19
1.92
1.28
1.41
1.06
-0.38
-3.50
-7.37
-10.31
-10.98
-8.44
-3.74
1.66
5.43
6.60
5.08
2.14
-0.43
-1.83
-1.64
-1.07
-0.88
-1.99
-3.89
-5.37
-5.37
-3.06
0.62
4.52
6.65
6.37
3.70
-0.10
-3.30
-5.14
-5.14
-4.38
-3.51
-3.49
-3.99
-4.12
-3.11
-0.32
3.30
6.66
7.92
6.58
2.72
-2.23
-6.35
-8.56
-8.14
-6.01
-2.95
-0.27
1.78
3.52
5.30
7.63
9.75
11.00
10.02
6.73
1.42
-4.44
-9.03
-11.41
-10.92
-8.56
-5.12
-1.94
0.70
3.05
5.37
8.09
10.41
11.66
10.51
6.91
1.18
-5.14
-10.15
-12.73
-12.09
-9.09
-4.57
-0.08
3.84
7.13
9.91
12.62
14.60
15.34
13.65
9.54
3.34
-3.43
-8.84
-11.79
-11.48
-8.80
-4.61
-0.47
3.07
5.93
8.34
10.79
12.71
13.68
12.44
8.88
3.10
-3.54
-9.19
-12.62
-12.79
-10.36
-6.08
-1.57
2.45
5.66
8.12
10.33
11.82
12.33
10.77
7.07
1.28
-5.34
-11.05
-14.61
-14.98
-12.83
-8.99
-5.12
-1.77
1.17
4.20
7.93
11.46
13.63
12.40
7.28
-1.19
-10.59
-17.81
-20.89
-18.92
-13.46
-6.38
-0.09
4.54
7.61
9.77
11.84
13.40
13.91
11.99
7.50
0.70
-6.67
-12.45
-15.23
-14.20
-10.46
-5.31
-0.69
2.67
4.82
6.37
8.22
10.01
11.28
10.50
7.24
1.44
-5.40
-11.06
-13.93
-12.87
-8.81
-3.09
2.09
5.69
7.52
8.24
8.94
9.59
9.94
8.58
5.04
-0.81
-7.54
-12.99
-15.58
-14.23
-9.97
-4.15
0.96
4.39
5.98
6.46
6.98
7.64
8.28
7.60
5.11
0.57
-4.83
-9.20
-11.17
-9.81
-6.13
-1.46
2.11
3.76
3.53
2.39
1.73
1.77
2.43
2.28
0.64
-3.02
-7.71
-11.63
-13.33
-11.65
-7.37
-1.61
3.53
7.06
8.70
9.12
9.44
9.73
9.88
8.51
5.10
-0.61
-7.31
-12.85
-15.49
-13.99
-9.28
-2.85
2.76
6.28
7.31
6.72
5.98
5.58
5.69
5.05
3.00
-1.00
-5.94
-10.03
-11.78
-10.13
-6.04
-0.87
3.10
4.91
4.44
2.78
1.48
1.00
1.42
1.34
-0.01
-3.31
-7.60
-11.06
-12.15
-9.76
-4.90
0.88
5.10
6.65
5.38
2.58
0.14
-1.06
-0.60
0.28
0.72
-0.28
-2.23
-3.89
-4.15
-2.13
1.32
5.09
7.26
7.18
4.91
1.68
-0.87
-2.08
-1.66
-0.84
-0.41
-1.31
-3.10
-4.57
-4.66
-2.42
1.35
5.55
8.18
8.46
6.28
2.82
-0.26
-2.15
-2.43
-2.18
-2.11
-3.13
-4.78
-5.96
-5.71
-3.27
0.39
4.14
6.01
5.42
2.44
-1.55
-4.74
-6.25
-5.62
-4.00
-2.23
-1.49
-1.65
-1.90
-1.40
0.63
3.51
6.35
7.44
6.29
2.89
-1.50
-5.13
-7.07
-6.68
-4.93
-2.57
-0.84
0.17
0.96
2.11
4.29
6.81
8.97
9.25
7.37
3.43
-1.31
-5.17
-7.31
-7.12
-5.54
-3.25
-1.41
-0.09
1.12
2.64
4.96
7.32
8.99
8.53
5.76
0.86
-4.80
-9.46
-12.08
-11.91
-9.75
-6.29
-2.89
0.11
2.81
5.38
8.16
10.38
11.39
9.93
5.99
-0.06
-6.69
-11.98
-14.78
-14.21
-11.06
-6.09
-0.82
4.15
8.61
12.49
15.99
18.26
18.71
16.17
10.82
3.17
-5.02
-11.64
-15.39
-15.30
-12.19
-6.90
-1.14
4.30
9.01
12.85
15.99
17.71
17.60
14.64
9.08
1.43
-6.61
-13.01
-16.56
-16.45
-13.57
-8.87
-3.99
0.42
4.17
7.35
10.31
12.35
12.97
10.99
6.45
-0.28
-7.59
-13.42
-16.42
-15.67
-12.05
-6.63
-1.29
3.10
6.28
8.51
10.46
11.78
12.19
10.48
6.51
0.36
-6.53
-12.21
-15.30
-14.82
-11.59
-6.60
-1.69
2.36
5.33
7.54
9.61
11.11
11.62
9.84
5.57
-1.05
-8.44
-14.42
-17.43
-16.38
-12.20
-6.14
-0.39
4.00
6.72
8.26
9.58
10.61
11.13
9.84
6.33
0.45
-6.48
-12.40
-15.71
-15.12
-11.31
-5.34
0.73
5.80
9.39
11.75
13.59
14.68
14.77
12.63
8.03
1.07
-6.67
-12.93
-16.04
-14.91
-10.54
-4.40
1.16
5.02
6.91
7.50
7.94
8.30
8.43
6.98
3.48
-2.29
-8.97
-14.42
-17.01
-15.55
-10.98
-4.71
0.87
4.61
6.24
6.54
6.81
7.23
7.66
6.65
3.54
-2.01
-8.63
-14.05
-16.47
-14.71
-9.84
-3.57
1.43
3.93
3.76
2.11
0.78
0.44
1.28
1.85
1.20
-1.55
-5.64
-9.34
-11.07
-9.53
-5.44
-0.06
4.32
6.56
6.31
4.50
2.67
1.47
1.24
0.82
-0.47
-3.39
-7.32
-10.77
-12.50
-11.39
-8.14
-3.72
-0.04
2.23
3.06
3.44
4.64
6.81
9.62
11.39
11.20
8.48
4.45
1.29
0.77
4.00
9.67
15.78
19.39
19.19
15.13
8.87
2.81
-1.70
-3.94
-5.05
-5.88
-7.51
-9.53
-10.72
-10.08
-6.89
-2.30
2.28
4.65
4.12
0.89
-3.41
-6.72
-8.07
-7.05
-5.06
-3.17
-2.65
-3.29
-4.00
-3.70
-1.44
1.97
5.44
6.99
5.95
2.33
-2.45
-6.43
-8.56
-8.21
-6.46
-4.16
-2.61
-1.83
-1.15
0.14
2.76
5.93
8.76
9.55
7.88
3.85
-1.12
-5.23
-7.49
-7.29
-5.64
-3.29
-1.48
-0.24
0.92
2.53
5.15
7.96
10.16
10.20
7.83
3.25
-2.11
-6.46
-8.85
-8.64
-6.81
-4.13
-1.84
-0.10
1.44
3.16
5.54
7.81
9.26
8.51
5.43
0.26
-5.57
-10.23
-12.71
-12.24
-9.70
-5.88
-2.18
0.96
3.62
5.98
8.48
10.41
11.25
9.75
5.94
0.13
-6.17
-11.11
-13.65
-13.01
-10.08
-5.63
-1.13
2.94
6.53
9.68
12.67
14.66
15.07
12.70
7.67
0.49
-7.14
-13.18
-16.39
-15.93
-12.72
-7.71
-2.60
1.90
5.60
8.56
11.21
12.97
13.39
11.35
6.90
0.37
-6.67
-12.30
-15.31
-14.83
-11.71
-6.77
-1.62
3.11
7.22
10.71
13.88
15.97
16.48
14.26
9.40
2.33
-5.31
-11.48
-14.95
-14.81
-11.92
-7.16
-2.20
2.28
6.09
9.27
12.15
13.99
14.28
11.83
6.74
-0.58
-8.38
-14.56
-17.79
-17.19
-13.68
-8.29
-2.86
1.87
5.67
8.69
11.39
13.15
13.48
11.13
6.11
-1.20
-9.05
-15.20
-18.18
-17.04
-12.78
-6.62
-0.63
4.22
7.66
10.02
12.05
13.49
14.08
12.58
8.79
2.72
-4.21
-10.00
-13.26
-12.92
-9.75
-4.75
0.29
4.55
7.81
10.30
12.55
14.02
14.24
11.94
7.00
-0.28
-8.19
-14.45
-17.54
-16.46
-12.27
-6.34
-0.85
3.18
5.55
6.81
7.93
8.80
9.19
7.74
4.11
-1.80
-8.59
-14.15
-16.94
-15.80
-11.56
-5.42
0.50
5.15
8.19
10.06
11.63
12.75
13.16
11.52
7.49
1.03
-6.38
-12.51
-15.71
-14.81
-10.75
-4.89
0.45
4.16
5.97
6.54
7.04
7.54
7.92
6.81
3.68
-1.73
-8.13
-13.43
-15.97
-14.53
-9.96
-3.60
2.23
6.37
8.44
9.09
9.47
9.76
9.88
8.53
5.21
-0.35
-6.80
-12.03
-14.38
-12.72
-8.08
-1.99
3.06
5.91
6.33
5.25
4.19
3.66
3.86
3.59
2.24
-0.78
-4.66
-7.84
-9.08
-7.41
-3.70
0.85
4.16
5.33
4.22
1.87
-0.17
-1.26
-1.08
-0.84
-1.30
-3.31
-6.30
-8.87
-9.76
-7.94
-4.22
0.22
3.26
4.07
2.57
-0.08
-2.23
-3.26
-2.90
-2.40
-2.48
-3.91
-6.03
-7.51
-7.32
-4.70
-0.69
3.51
5.96
6.13
4.15
1.30
-0.83
-1.71
-1.14
-0.41
-0.21
-1.36
-3.28
-4.75
-4.78
-2.59
0.90
4.57
6.53
6.17
3.55
-0.06
-2.98
-4.43
-3.99
-2.76
-1.47
-1.15
-1.55
-1.82
-1.15
1.17
4.38
7.55
8.98
8.21
5.26
1.35
-1.88
-3.66
-3.51
-2.45
-1.19
-0.75
-0.96
-1.03
-0.22
2.20
5.43
8.57
9.89
8.89
5.55
1.09
-2.80
-5.19
-5.45
-4.47
-2.90
-1.85
-1.27
-0.58
0.78
3.34
6.19
8.41
8.35
5.71
0.79
-4.86
-9.29
-11.47
-10.82
-8.42
-5.14
-2.33
-0.14
1.85
4.06
6.96
9.68
11.38
10.58
7.15
1.47
-4.83
-9.73
-12.09
-11.19
-8.06
-3.67
0.37
3.55
5.95
7.87
9.91
11.55
12.33
11.04
7.61
2.25
-3.69
-8.44
-11.02
-10.69
-8.33
-4.68
-1.13
1.93
4.56
6.95
9.50
11.52
12.48
11.16
7.53
1.83
-4.54
-9.79
-12.80
-12.67
-10.13
-5.84
-1.25
3.02
6.78
9.96
12.84
14.72
15.20
13.22
8.97
2.89
-3.53
-8.48
-10.99
-10.42
-7.70
-3.67
0.17
3.29
5.67
7.47
9.20
10.35
10.57
8.65
4.47
-1.93
-9.21
-15.41
-19.12
-19.14
-16.15
-11.15
-6.13
-2.13
0.53
2.16
3.60
4.68
5.08
3.48
-0.51
-6.92
-14.33
-20.65
-24.37
-24.29
-21.09
-15.62
-9.59
-3.75
1.61
6.35
10.56
13.23
13.63
10.68
4.89
-2.66
-9.83
-14.49
-15.86
-13.83
-10.04
-5.70
-2.30
0.07
1.85
3.56
5.80
7.92
9.33
8.71
5.83
0.77
-5.18
-10.25
-13.27
-13.25
-10.81
-6.50
-1.56
3.69
9.11
14.43
19.33
22.43
22.99
20.39
15.85
11.04
7.91
7.52
9.10
11.28
11.88
10.15
6.05
1.28
-2.10
-2.55
0.66
6.27
12.46
16.41
16.61
12.42
5.17
-2.62
-8.74
-11.35
-10.78
-7.87
-4.51
-1.55
0.89
3.13
5.76
8.07
9.27
7.78
3.29
-3.84
-11.73
-17.94
-20.87
-19.56
-15.20
-9.20
-3.73
0.26
2.75
4.30
5.91
7.41
8.44
7.62
4.53
-0.88
-7.29
-12.68
-15.65
-15.10
-11.76
-6.56
-1.24
3.39
7.09
9.95
12.43
13.97
14.13
11.75
6.85
-0.19
-7.75
-13.75
-16.88
-16.26
-12.78
-7.49
-2.19
2.33
5.85
8.56
10.97
12.57
12.96
10.98
6.62
0.23
-6.60
-11.83
-14.28
-13.21
-9.69
-4.83
-0.39
3.01
5.42
7.22
9.08
10.51
11.05
9.44
5.55
-0.39
-6.86
-11.89
-14.33
-13.41
-10.20
-5.80
-1.90
0.93
2.82
4.25
5.95
7.43
8.14
6.70
2.89
-3.15
-9.91
-15.37
-18.18
-17.35
-13.68
-8.10
-2.37
2.71
6.86
10.12
12.94
14.75
15.13
12.92
8.15
1.21
-6.23
-12.07
-15.00
-14.17
-10.61
-5.42
-0.44
3.60
6.64
8.94
11.11
12.67
13.18
11.41
7.30
1.13
-5.60
-10.92
-13.66
-13.01
-9.95
-5.42
-1.07
2.51
5.30
7.53
9.75
11.36
11.89
10.11
6.00
-0.12
-6.71
-11.83
-14.35
-13.53
-10.37
-5.85
-1.60
1.86
4.55
6.76
9.04
10.79
11.50
9.93
6.04
0.11
-6.35
-11.41
-13.99
-13.31
-10.35
-6.02
-1.92
1.43
4.07
6.27
8.59
10.43
11.29
9.91
6.20
0.43
-5.95
-11.03
-13.70
-13.15
-10.28
-5.91
-1.61
2.11
5.21
7.84
10.45
12.38
13.13
11.49
7.46
1.37
-5.29
-10.65
-13.60
-13.32
-10.62
-6.23
-1.60
2.74
6.66
10.11
13.31
15.47
16.04
13.92
9.27
2.55
-4.64
-10.38
-13.59
-13.46
-10.85
-6.55
-2.07
2.00
5.50
8.41
11.04
12.68
12.90
10.62
5.96
-0.66
-7.69
-13.21
-16.08
-15.50
-12.41
-7.74
-3.15
0.73
3.82
6.31
8.73
10.54
11.28
9.74
5.80
-0.32
-7.18
-12.82
-15.96
-15.63
-12.59
-7.68
-2.57
2.00
5.81
8.86
11.51
13.12
13.28
10.96
6.37
0.05
-6.37
-11.00
-12.94
-11.70
-8.45
-4.21
-0.49
2.38
4.64
6.68
9.07
11.13
12.21
10.97
7.30
1.49
-4.93
-10.06
-12.82
-12.48
-9.96
-6.04
-2.09
1.51
4.87
8.10
11.43
13.98
15.02
13.23
8.66
1.79
-5.62
-11.44
-14.42
-13.81
-10.78
-6.56
-3.07
-0.97
-0.05
0.40
1.50
3.09
4.72
4.76
2.46
-2.54
-9.09
-15.14
-19.10
-19.61
-17.16
-12.53
-7.41
-2.61
1.62
5.22
8.56
10.94
12.02
10.98
8.39
5.04
2.37
1.45
1.92
3.02
2.94
1.05
-2.81
-7.14
-9.94
-9.78
-6.04
-0.23
5.63
8.76
8.01
3.36
-3.37
-9.53
-13.35
-13.81
-12.05
-9.36
-7.55
-6.89
-6.72
-6.12
-4.17
-1.55
0.81
1.21
-0.69
-4.51
-8.66
-11.32
-11.82
-10.07
-7.46
-4.82
-2.97
-1.39
0.81
3.99
8.19
12.03
14.58
14.87
13.63
11.89
11.06
11.98
13.99
16.27
17.23
16.53
14.14
11.31
9.48
9.47
11.71
15.04
18.22
19.35
17.79
13.53
7.87
2.73
-0.71
-1.71
-1.33
-0.66
-1.19
-3.00
-5.09
-6.21
-5.08
-2.22
1.32
3.36
2.92
-0.12
-4.40
-7.85
-9.45
-8.74
-7.14
-5.82
-6.08
-7.69
-9.40
-9.93
-8.09
-4.51
-0.21
2.75
3.50
1.87
-1.04
-3.50
-4.70
-4.21
-3.24
-2.68
-3.62
-5.70
-7.69
-8.34
-6.50
-2.78
1.80
5.16
6.37
5.18
2.59
0.24
-1.12
-1.10
-0.84
-1.12
-2.82
-5.45
-7.65
-8.23
-6.18
-2.27
2.38
5.74
6.99
6.10
4.12
2.60
1.97
2.22
1.86
-0.02
-4.11
-9.38
-13.85
-15.75
-13.77
-8.76
-2.21
3.35
6.60
7.21
6.15
5.00
4.40
4.52
4.07
2.28
-1.47
-6.27
-10.26
-11.91
-10.02
-5.40
0.65
5.88
9.20
10.35
10.11
9.76
9.52
9.28
7.59
3.85
-2.26
-9.32
-15.05
-17.60
-15.73
-10.50
-3.55
2.47
6.25
7.50
7.14
6.68
6.53
6.69
5.74
2.98
-2.02
-8.08
-13.09
-15.37
-13.71
-8.99
-2.60
3.12
7.02
8.83
9.28
9.62
10.01
10.34
9.18
5.94
0.32
-6.35
-11.87
-14.51
-13.08
-8.53
-2.34
3.09
6.59
7.95
7.96
7.92
8.00
8.04
6.61
3.13
-2.66
-9.40
-14.93
-17.57
-16.11
-11.46
-4.96
1.09
5.58
8.18
9.45
10.41
11.05
11.15
9.38
5.35
-1.00
-8.19
-14.00
-16.83
-15.58
-11.19
-5.00
0.77
5.09
7.74
9.21
10.47
11.36
11.61
9.84
5.72
-0.75
-8.07
-14.07
-17.17
-16.24
-12.13
-6.01
0.05
5.07
8.68
11.16
13.22
14.53
14.82
12.86
8.49
1.87
-5.48
-11.45
-14.61
-13.94
-10.35
-4.95
0.30
4.55
7.60
9.74
11.61
12.77
12.77
10.35
5.42
-1.73
-9.40
-15.43
-18.41
-17.40
-13.40
-7.56
-1.82
2.96
6.55
9.19
11.49
13.06
13.53
11.71
7.50
1.12
-5.91
-11.54
-14.47
-13.77
-10.35
-5.26
-0.31
3.78
6.89
9.25
11.42
12.82
12.94
10.50
5.47
-1.75
-9.47
-15.54
-18.63
-17.87
-14.20
-8.66
-3.02
1.97
6.11
9.46
12.42
14.34
14.76
12.54
7.78
0.91
-6.46
-12.30
-15.42
-14.99
-11.93
-7.15
-2.30
1.98
5.56
8.53
11.28
13.14
13.64
11.60
7.11
0.57
-6.44
-11.96
-14.88
-14.44
-11.59
-7.17
-2.75
1.15
4.47
7.34
10.18
12.36
13.43
12.25
8.82
3.36
-2.77
-7.83
-10.79
-10.77
-8.52
-4.66
-0.59
3.18
6.52
9.40
12.07
13.77
13.98
11.58
6.76
-0.01
-7.10
-12.61
-15.51
-15.12
-12.45
-8.35
-4.31
-0.73
2.44
5.33
8.29
10.49
11.33
9.58
5.34
-0.94
-7.61
-12.72
-15.19
-14.31
-11.09
-6.49
-2.10
1.54
4.46
6.86
9.25
11.02
11.67
9.99
5.98
-0.02
-6.49
-11.55
-14.14
-13.54
-10.70
-6.47
-2.32
1.28
4.38
7.15
9.98
12.17
13.17
11.75
7.93
2.04
-4.44
-9.65
-12.55
-12.39
-10.01
-6.17
-2.30
1.18
4.25
6.98
9.64
11.39
11.64
9.19
4.21
-2.75
-9.98
-15.46
-18.10
-17.22
-13.91
-9.13
-4.51
-0.57
2.70
5.50
8.31
10.49
11.58
10.38
6.93
1.53
-4.36
-8.96
-11.31
-10.73
-8.17
-4.43
-0.90
2.05
4.53
6.76
9.20
11.19
12.19
10.97
7.51
2.06
-4.01
-8.94
-11.71
-11.53
-9.19
-5.37
-1.43
2.16
5.36
8.20
10.97
12.88
13.42
11.42
7.03
0.66
-6.16
-11.57
-14.58
-14.45
-12.05
-8.13
-4.12
-0.46
2.80
5.68
8.53
10.63
11.52
10.12
6.51
1.03
-4.89
-9.54
-12.00
-11.59
-9.24
-5.66
-2.22
0.76
3.38
5.84
8.49
10.58
11.52
10.07
6.27
0.44
-5.89
-10.88
-13.52
-13.06
-10.44
-6.47
-2.60
0.70
3.48
5.91
8.44
10.37
11.18
9.67
5.85
0.09
-6.10
-10.85
-13.14
-12.31
-9.37
-5.23
-1.42
1.61
4.01
6.06
8.32
10.18
11.12
9.87
6.38
0.87
-5.20
-10.02
-12.53
-11.97
-9.23
-5.10
-1.07
2.40
5.30
7.80
10.30
12.10
12.66
10.76
6.42
-0.01
-6.96
-12.48
-15.41
-14.92
-11.89
-7.17
-2.38
1.87
5.46
8.45
11.22
13.09
13.57
11.51
6.99
0.38
-6.69
-12.27
-15.18
-14.63
-11.58
-6.98
-2.45
1.41
4.58
7.24
9.84
11.70
12.25
10.24
5.66
-1.09
-8.35
-14.05
-16.86
-15.89
-12.03
-6.23
-0.26
5.11
9.64
13.32
16.48
18.39
18.54
15.76
10.18
2.33
-5.97
-12.52
-15.98
-15.51
-12.16
-7.07
-2.10
1.98
5.04
7.40
9.67
11.43
12.29
11.02
7.47
1.79
-4.61
-9.80
-12.54
-11.95
-8.93
-4.48
-0.36
2.77
4.87
6.35
7.97
9.32
10.02
8.73
5.15
-0.70
-7.44
-13.08
-16.20
-15.70
-12.35
-7.16
-2.01
2.23
5.27
7.43
9.41
10.88
11.53
10.06
6.23
0.08
-6.89
-12.57
-15.39
-14.27
-10.08
-4.08
1.61
5.96
8.69
10.29
11.63
12.52
12.66
10.70
6.30
-0.49
-8.07
-14.16
-17.08
-15.69
-11.04
-4.60
1.24
5.33
7.42
8.21
8.88
9.51
9.92
8.67
5.22
-0.67
-7.62
-13.43
-16.37
-15.18
-10.74
-4.41
1.45
5.66
7.82
8.56
8.96
9.13
8.97
7.20
3.43
-2.50
-9.19
-14.50
-16.79
-15.00
-10.22
-4.06
0.97
3.73
4.03
2.95
2.08
1.95
2.62
2.66
1.25
-2.27
-6.93
-10.87
-12.51
-10.70
-6.37
-0.98
3.10
4.84
4.10
2.05
0.36
-0.35
0.13
0.47
-0.11
-2.38
-5.57
-8.09
-8.61
-6.12
-1.62
3.51
6.97
7.83
6.00
2.75
-0.09
-1.68
-1.55
-0.84
-0.31
-0.94
-2.33
-3.40
-3.17
-0.87
2.59
6.09
7.69
6.84
3.60
-0.66
-4.14
-5.98
-5.70
-4.43
-2.94
-2.34
-2.44
-2.38
-1.37
1.30
4.75
7.93
9.00
7.44
3.35
-1.81
-6.09
-8.40
-8.00
-5.87
-2.80
-0.13
1.95
3.78
5.76
8.35
10.69
12.00
10.83
7.06
1.04
-5.65
-11.02
-13.93
-13.57
-10.79
-6.43
-2.00
1.97
5.40
8.40
11.35
13.59
14.64
13.31
9.61
3.81
-2.65
-7.91
-10.86
-10.65
-8.10
-4.00
0.12
3.71
6.69
9.20
11.66
13.42
14.00
12.23
8.09
1.87
-4.95
-10.45
-13.45
-13.06
-10.11
-5.48
-0.80
3.28
6.63
9.39
12.00
13.82
14.34
12.29
7.62
0.63
-7.01
-13.15
-16.34
-15.62
-11.97
-6.60
-1.53
2.32
4.76
6.26
7.66
8.78
9.34
8.04
4.57
-1.07
-7.46
-12.55
-14.87
-13.42
-9.19
-3.46
1.66
5.23
7.14
8.04
8.96
9.82
10.30
8.96
5.34
-0.70
-7.68
-13.38
-16.14
-14.88
-10.63
-4.88
0.02
3.02
4.00
3.83
3.89
4.42
5.30
5.13
3.26
-0.74
-5.75
-9.87
-11.61
-9.92
-5.77
-0.47
3.78
6.07
6.35
5.57
5.07
5.08
5.51
4.94
2.75
-1.45
-6.49
-10.47
-11.95
-9.98
-5.68
-0.58
3.01
4.16
2.88
0.41
-1.53
-2.29
-1.64
-0.86
-0.73
-2.05
-4.21
-5.86
-5.96
-3.70
-0.09
3.70
5.73
5.42
2.92
-0.46
-3.02
-4.15
-3.60
-2.68
-2.19
-3.06
-4.79
-6.15
-6.11
-3.80
-0.13
3.74
5.82
5.46
2.74
-1.00
-3.94
-5.27
-4.56
-3.02
-1.46
-0.95
-1.24
-1.40
-0.58
1.91
5.20
8.23
9.18
7.56
3.50
-1.58
-5.80
-8.13
-7.91
-6.08
-3.39
-1.07
0.75
2.45
4.42
7.10
9.60
11.16
10.29
6.85
1.13
-5.31
-10.50
-13.22
-12.60
-9.46
-4.63
0.30
4.70
8.43
11.54
14.38
16.26
16.67
14.42
9.57
2.53
-5.05
-11.11
-14.40
-14.03
-10.89
-5.94
-0.90
3.55
7.22
10.23
13.02
14.93
15.50
13.50
8.96
2.25
-5.00
-10.74
-13.72
-13.10
-9.85
-5.04
-0.47
3.15
5.73
7.63
9.54
11.10
11.95
10.84
7.58
2.19
-3.97
-9.00
-11.62
-10.95
-7.93
-3.66
-0.02
2.31
3.34
3.75
4.57
5.63
6.62
6.09
3.55
-1.25
-7.04
-11.86
-14.26
-13.19
-9.52
-4.45
-0.04
2.87
4.18
4.65
5.40
6.38
7.32
6.72
4.01
-1.08
-7.22
-12.29
-14.64
-13.14
-8.74
-2.85
2.20
5.35
6.41
6.24
6.17
6.44
6.97
6.40
4.11
-0.29
-5.67
-10.14
-12.24
-10.91
-7.11
-2.12
1.88
3.96
3.99
2.91
2.10
1.96
2.58
2.69
1.64
-1.16
-4.88
-7.92
-8.98
-7.09
-3.19
1.45
4.69
5.67
4.34
1.81
-0.31
-1.37
-1.09
-0.63
-0.66
-1.97
-3.99
-5.46
-5.43
-3.15
0.40
4.04
5.82
5.15
2.17
-1.78
-4.90
-6.40
-5.87
-4.50
-3.12
-2.83
-3.43
-3.98
-3.61
-1.48
1.71
5.06
6.82
6.43
3.87
0.31
-2.62
-4.15
-3.78
-2.57
-1.20
-0.68
-0.78
-0.66
0.39
2.96
6.04
8.53
8.65
6.01
0.91
-5.04
-9.78
-12.17
-11.50
-8.81
-4.99
-1.52
1.30
3.74
6.18
9.11
11.70
13.19
12.11
8.32
2.20
-4.58
-9.99
-12.88
-12.52
-9.94
-6.03
-2.26
0.96
3.76
6.36
9.14
11.33
12.33
10.84
6.87
0.74
-6.00
-11.38
-14.20
-13.59
-10.37
-5.39
-0.27
4.35
8.26
11.53
14.50
16.47
16.91
14.65
9.79
2.78
-4.69
-10.57
-13.66
-13.18
-10.11
-5.46
-0.93
2.85
5.82
8.21
10.58
12.39
13.21
11.80
8.07
2.20
-4.39
-9.77
-12.70
-12.26
-9.25
-4.61
-0.04
3.76
6.63
8.81
10.87
12.28
12.59
10.52
5.96
-0.86
-8.35
-14.38
-17.54
-16.85
-13.25
-7.88
-2.71
1.40
4.25
6.25
8.18
9.80
10.81
9.91
6.79
1.36
-5.04
-10.42
-13.34
-12.70
-9.29
-4.21
0.55
4.11
6.27
7.53
8.79
9.87
10.48
9.25
5.81
0.08
-6.51
-11.87
-14.46
-13.22
-9.10
-3.38
1.76
5.33
7.10
7.73
8.30
8.88
9.34
8.36
5.47
0.39
-5.63
-10.60
-13.00
-11.75
-7.84
-2.63
1.64
4.01
4.38
3.71
3.40
3.71
4.54
4.40
2.58
-1.44
-6.54
-10.77
-12.56
-10.85
-6.63
-1.37
2.63
4.42
3.99
2.48
1.46
1.35
2.10
2.20
0.85
-2.57
-7.05
-10.74
-12.15
-10.19
-5.85
-0.51
3.53
5.29
4.67
2.76
1.16
0.49
0.99
1.44
1.18
-0.54
-3.07
-5.09
-5.54
-3.61
-0.22
3.53
5.78
5.94
4.11
1.42
-0.63
-1.56
-1.23
-0.88
-1.22
-3.00
-5.55
-7.50
-7.70
-5.29
-1.17
3.42
6.41
6.99
5.13
2.01
-0.67
-2.15
-2.00
-1.31
-0.74
-1.16
-2.20
-2.86
-2.35
-0.05
3.10
6.10
7.24
6.11
2.92
-1.01
-4.03
-5.47
-5.00
-3.83
-2.73
-2.71
-3.43
-3.90
-3.23
-0.67
2.94
6.54
8.30
7.69
4.78
0.88
-2.28
-3.94
-3.66
-2.56
-1.36
-1.07
-1.44
-1.63
-0.94
1.28
4.16
6.82
7.60
6.15
2.62
-1.69
-5.10
-6.84
-6.48
-5.10
-3.44
-2.60
-2.41
-2.09
-0.95
1.68
4.92
7.76
8.45
6.53
2.14
-3.27
-7.76
-10.24
-9.95
-7.83
-4.64
-1.72
0.65
2.75
4.86
7.43
9.67
10.92
9.83
6.38
0.89
-5.13
-9.83
-12.22
-11.61
-8.97
-5.08
-1.33
1.89
4.69
7.24
9.92
11.98
12.84
11.28
7.32
1.31
-5.20
-10.32
-12.94
-12.30
-9.35
-5.03
-0.94
2.35
4.84
6.83
8.92
10.59
11.39
10.03
6.37
0.57
-5.95
-11.30
-14.23
-13.75
-10.60
-5.60
-0.38
4.36
8.34
11.63
14.58
16.52
17.01
14.85
10.09
3.10
-4.50
-10.67
-14.11
-13.94
-11.03
-6.38
-1.69
2.30
5.45
7.94
10.24
11.79
12.15
10.09
5.55
-1.16
-8.38
-14.00
-16.64
-15.42
-11.36
-5.73
-0.52
3.44
6.05
7.81
9.58
11.12
12.08
11.10
7.88
2.35
-4.11
-9.51
-12.46
-11.91
-8.71
-3.92
0.60
4.01
6.20
7.59
8.97
9.99
10.26
8.39
4.07
-2.58
-9.98
-15.86
-18.60
-17.12
-12.42
-5.91
0.16
4.70
7.47
9.00
10.27
11.17
11.42
9.63
5.45
-1.13
-8.55
-14.52
-17.37
-15.98
-11.37
-5.02
0.70
4.67
6.70
7.48
8.21
8.91
9.33
8.02
4.45
-1.54
-8.49
-14.15
-16.83
-15.34
-10.68
-4.25
1.60
5.74
7.90
8.74
9.41
9.95
10.16
8.63
4.86
-1.31
-8.43
-14.19
-16.86
-15.21
-10.26
-3.50
2.56
6.72
8.66
9.15
9.47
9.85
10.21
9.19
6.23
1.01
-5.20
-10.34
-12.84
-11.59
-7.56
-2.13
2.47
5.25
6.10
5.87
5.84
6.11
6.46
5.39
2.23
-3.34
-10.00
-15.52
-18.11
-16.50
-11.55
-4.72
1.55
5.97
8.19
8.91
9.41
9.91
10.36
9.39
6.40
1.09
-5.23
-10.40
-12.73
-11.09
-6.49
-0.48
4.52
7.41
8.08
7.50
7.11
7.20
7.59
6.77
3.97
-1.20
-7.47
-12.66
-15.02
-13.36
-8.69
-2.58
2.50
5.35
5.84
4.98
4.35
4.39
5.04
4.76
2.73
-1.61
-7.11
-11.66
-13.55
-11.58
-6.75
-0.59
4.49
7.40
8.09
7.57
7.34
7.65
8.33
7.79
5.27
0.34
-5.73
-10.78
-13.12
-11.58
-7.17
-1.38
3.41
6.10
6.57
5.75
5.11
5.00
5.42
5.01
3.10
-0.79
-5.64
-9.65
-11.43
-9.95
-6.08
-1.05
3.10
5.50
6.09
5.70
5.56
5.78
6.19
5.31
2.53
-2.49
-8.46
-13.25
-15.24
-13.31
-8.53
-2.46
2.47
5.17
5.57
4.74
4.23
4.41
5.19
5.02
3.06
-1.24
-6.76
-11.46
-13.65
-12.06
-7.52
-1.35
4.14
7.82
9.41
9.69
9.91
10.29
10.73
9.84
7.01
1.91
-4.22
-9.29
-11.70
-10.29
-6.05
-0.38
4.37
7.11
7.70
6.99
6.42
6.30
6.61
5.91
3.50
-1.15
-6.92
-11.84
-14.26
-12.93
-8.65
-2.74
2.51
5.99
7.43
7.59
7.71
7.97
8.22
7.05
3.85
-1.66
-8.12
-13.34
-15.62
-13.82
-9.06
-2.93
2.04
4.73
5.06
4.10
3.44
3.45
4.05
3.68
1.54
-2.85
-8.29
-12.67
-14.31
-12.09
-7.07
-0.83
4.19
6.90
7.23
6.27
5.62
5.73
6.58
6.71
5.28
1.66
-3.18
-7.35
-9.30
-7.83
-3.75
1.65
6.15
8.71
9.12
8.24
7.42
6.98
6.94
5.97
3.48
-0.96
-6.21
-10.38
-11.98
-10.00
-5.48
0.12
4.47
6.57
6.36
4.89
3.70
3.24
3.52
3.13
1.32
-2.47
-7.21
-11.03
-12.45
-10.45
-6.10
-0.89
2.82
4.07
2.89
0.53
-1.26
-1.83
-1.02
-0.23
-0.33
-2.18
-5.08
-7.53
-8.25
-6.24
-2.40
2.10
5.24
6.23
5.07
2.85
1.11
0.37
0.83
1.25
0.95
-0.78
-3.28
-5.19
-5.40
-3.08
0.84
5.17
7.91
8.38
6.62
3.83
1.62
0.58
0.93
1.39
1.20
-0.48
-3.03
-5.11
-5.59
-3.60
-0.05
3.90
6.27
6.38
4.33
1.32
-1.00
-2.04
-1.61
-1.00
-0.99
-2.39
-4.56
-6.15
-6.05
-3.49
0.48
4.55
6.65
6.11
3.10
-0.95
-4.12
-5.50
-4.71
-2.97
-1.20
-0.56
-0.86
-1.21
-0.84
0.99
3.45
5.66
6.01
4.18
0.43
-3.89
-7.09
-8.47
-7.65
-5.82
-3.77
-2.64
-2.29
-1.96
-0.92
1.57
4.75
7.76
8.90
7.73
4.31
-0.07
-3.66
-5.60
-5.36
-4.00
-2.28
-1.34
-1.09
-0.80
0.17
2.44
5.16
7.45
7.65
5.47
1.11
-4.02
-8.10
-10.24
-9.84
-7.92
-5.21
-2.94
-1.17
0.54
2.59
5.46
8.28
10.20
9.75
6.74
1.52
-4.33
-8.85
-10.99
-10.12
-7.32
-3.55
-0.30
2.11
4.01
5.85
8.27
10.57
12.06
11.28
8.02
2.51
-3.75
-8.83
-11.62
-11.28
-8.71
-4.68
-0.66
2.89
5.97
8.68
11.38
13.31
13.92
11.98
7.54
0.97
-6.13
-11.76
-14.70
-14.06
-10.76
-5.72
-0.68
3.66
7.10
9.77
12.17
13.76
14.16
12.21
7.96
1.71
-5.03
-10.37
-13.19
-12.75
-10.02
-5.95
-2.15
0.86
3.12
4.96
6.98
8.67
9.58
8.45
5.13
-0.26
-6.33
-11.18
-13.58
-12.65
-9.26
-4.41
0.14
3.69
6.16
7.93
9.72
11.11
11.68
10.10
6.15
-0.02
-6.87
-12.31
-14.97
-13.92
-10.18
-4.96
-0.23
3.23
5.34
6.67
8.12
9.48
10.38
9.43
6.27
0.79
-5.65
-11.05
-13.96
-13.32
-9.96
-4.94
-0.19
3.44
5.79
7.30
8.83
10.13
10.87
9.70
6.24
0.44
-6.33
-12.03
-15.15
-14.53
-10.94
-5.44
-0.03
4.36
7.41
9.45
11.25
12.54
13.02
11.41
7.44
1.17
-5.87
-11.49
-14.17
-12.91
-8.79
-3.23
1.51
4.45
5.52
5.51
5.65
6.07
6.61
5.89
3.40
-1.17
-6.62
-11.00
-12.88
-11.24
-7.06
-1.64
2.87
5.61
6.52
6.48
6.72
7.29
7.97
7.22
4.44
-0.69
-6.85
-11.91
-14.27
-12.87
-8.81
-3.63
0.23
1.74
0.87
-1.22
-2.82
-3.26
-2.34
-1.34
-1.04
-2.28
-4.45
-6.22
-6.52
-4.48
-1.02
2.74
4.91
4.91
2.83
-0.11
-2.34
-3.29
-2.71
-1.82
-1.28
-1.95
-3.31
-4.25
-3.87
-1.46
2.02
5.45
6.95
5.99
2.69
-1.60
-5.11
-6.96
-6.61
-5.10
-3.13
-1.82
-1.07
-0.24
1.24
3.91
6.83
9.06
8.95
6.21
1.14
-4.67
-9.19
-11.30
-10.29
-7.22
-3.06
0.66
3.52
5.74
7.70
10.02
12.08
13.32
12.38
9.12
3.73
-2.35
-7.26
-9.90
-9.48
-6.93
-3.09
0.51
3.42
5.70
7.68
9.90
11.76
12.74
11.52
7.97
2.21
-4.34
-9.76
-12.78
-12.38
-9.31
-4.39
0.69
5.17
8.79
11.65
14.21
15.95
16.44
14.46
9.94
3.10
-4.49
-10.71
-14.06
-13.47
-9.78
-4.13
1.44
5.90
8.91
10.78
12.27
13.18
13.34
11.60
7.85
2.20
-3.89
-8.49
-10.33
-8.63
-4.51
0.74
5.15
7.97
9.22
9.68
10.41
11.36
12.28
11.67
8.84
3.38
-3.50
-9.57
-12.86
-11.87
-7.48
-1.51
2.91
3.93
1.07
-4.20
-9.24
-12.31
-12.50
-11.19
-9.90
-10.35
-12.53
-15.09
-16.51
-15.44
-12.56
-9.13
-7.35
-8.00
-10.83
-14.26
-16.28
-16.17
-13.87
-11.03
-8.78
-8.26
-9.01
-9.84
-9.67
-7.63
-4.51
-1.24
0.52
0.42
-1.41
-3.83
-5.48
-5.92
-4.83
-3.14
-1.09
0.75
2.82
5.67
9.32
13.60
17.02
18.53
16.83
12.30
5.79
-0.84
-5.68
-7.90
-7.02
-4.07
0.19
4.51
8.64
12.64
16.46
20.12
22.47
22.70
19.60
13.50
5.17
-3.38
-9.93
-13.27
-12.66
-9.21
-4.05
1.02
5.28
8.59
11.16
13.54
15.20
15.71
13.81
9.36
2.49
-5.26
-11.78
-15.59
-15.57
-12.53
-7.55
-2.61
1.38
4.17
6.11
7.89
9.10
9.28
7.00
2.01
-5.52
-13.83
-20.51
-23.87
-22.85
-18.60
-12.66
-7.39
-3.75
-1.77
-0.62
0.81
2.31
3.34
2.23
-1.52
-7.92
-15.18
-20.89
-23.29
-21.38
-16.34
-9.71
-3.77
0.65
3.50
5.49
7.43
8.91
9.45
7.89
4.54
0.27
-2.90
-3.14
-0.16
5.27
10.61
13.95
13.75
10.63
6.11
2.34
1.18
2.83
6.90
11.52
15.45
17.38
17.43
16.39
15.00
14.09
13.12
11.66
8.63
4.19
-1.16
-6.04
-8.96
-9.47
-7.44
-4.19
-0.72
1.65
2.81
3.39
4.18
6.10
8.59
10.83
10.99
8.45
3.19
-3.26
-8.65
-11.53
-10.92
-7.83
-3.38
0.63
3.60
5.70
7.40
9.44
11.30
12.36
11.12
7.20
0.67
-7.00
-13.61
-17.51
-17.37
-13.80
-7.77
-1.37
4.20
8.32
11.05
13.08
14.27
14.55
12.81
8.85
2.59
-4.69
-11.00
-14.82
-14.90
-11.95
-6.98
-2.03
1.88
4.42
5.96
7.36
8.42
8.89
7.46
3.80
-2.14
-8.91
-14.40
-17.04
-15.76
-11.51
-5.60
-0.23
3.61
5.68
6.60
7.40
8.06
8.40
7.13
3.89
-1.47
-7.59
-12.48
-14.69
-13.31
-9.46
-4.63
-1.13
0.13
-0.90
-3.05
-4.67
-5.16
-4.33
-3.51
-3.50
-5.13
-7.70
-9.75
-10.03
-7.58
-3.39
1.21
4.04
4.33
2.15
-1.14
-3.71
-4.76
-3.98
-2.61
-1.48
-1.55
-2.41
-2.98
-2.37
0.14
3.53
6.63
7.52
5.67
1.26
-4.22
-8.78
-11.29
-10.97
-8.72
-5.27
-1.90
1.14
4.06
7.02
10.30
12.95
14.25
12.89
8.93
2.86
-3.63
-8.54
-10.74
-9.49
-5.79
-0.62
4.32
8.36
11.37
13.58
15.59
16.94
17.35
15.66
11.79
5.87
-0.75
-6.27
-9.49
-9.49
-7.05
-3.02
1.03
4.49
7.32
9.70
12.06
13.63
13.73
11.00
5.47
-2.34
-10.46
-16.54
-19.19
-17.69
-13.39
-7.76
-2.90
0.41
2.26
3.34
4.68
6.04
7.08
6.36
3.48
-1.63
-7.56
-12.25
-14.27
-12.63
-8.40
-2.92
1.70
4.61
5.84
6.26
7.06
8.23
9.42
9.04
6.45
1.34
-4.93
-10.18
-12.71
-11.37
-7.20
-1.72
2.64
4.79
4.56
2.98
1.61
0.96
1.17
0.97
-0.29
-3.19
-6.88
-9.73
-10.48
-8.29
-4.22
0.28
3.01
3.13
0.73
-2.82
-5.67
-6.97
-6.34
-5.03
-3.89
-3.95
-4.83
-5.43
-4.81
-2.22
1.40
4.86
6.26
5.05
1.41
-3.18
-6.83
-8.61
-7.95
-5.93
-3.35
-1.36
0.03
1.39
3.21
5.97
8.75
10.67
10.15
6.98
1.48
-4.77
-9.73
-12.19
-11.31
-7.99
-3.09
1.76
6.01
9.58
12.62
15.57
17.72
18.55
16.82
12.55
6.07
-1.04
-6.82
-10.11
-10.05
-7.52
-3.35
0.89
4.65
7.84
10.60
13.30
15.23
15.85
13.88
9.30
2.37
-5.32
-11.70
-15.37
-15.24
-12.09
-6.92
-1.63
2.86
6.14
8.42
10.30
11.45
11.59
9.56
5.22
-1.27
-8.40
-14.05
-16.74
-15.45
-11.18
-5.22
0.27
4.35
6.82
8.25
9.57
10.61
11.04
9.49
5.63
-0.49
-7.27
-12.47
-14.55
-12.64
-8.07
-2.57
1.38
2.82
1.82
-0.37
-2.01
-2.57
-1.90
-1.40
-1.82
-3.89
-6.84
-9.14
-9.58
-7.29
-3.31
1.03
3.57
3.56
1.11
-2.43
-5.23
-6.52
-5.95
-4.80
-3.92
-4.29
-5.50
-6.38
-5.94
-3.33
0.53
4.48
6.55
6.07
3.11
-0.96
-4.28
-5.88
-5.18
-3.28
-0.99
0.49
1.22
1.90
3.18
5.69
8.52
10.70
10.54
7.74
2.56
-3.41
-8.17
-10.62
-10.03
-7.35
-3.38
0.47
3.85
6.86
9.67
12.59
14.78
15.60
13.78
9.39
2.88
-4.11
-9.55
-12.29
-11.51
-8.21
-3.36
1.32
5.19
8.14
10.42
12.56
14.02
14.36
12.33
7.87
1.21
-6.09
-11.96
-15.05
-14.38
-10.84
-5.48
-0.20
4.13
7.27
9.53
11.58
13.09
13.72
12.23
8.40
2.30
-4.59
-10.25
-13.24
-12.58
-9.24
-4.44
-0.22
2.56
3.84
4.32
5.06
6.00
6.86
6.20
3.50
-1.46
-7.42
-12.37
-14.83
-13.69
-9.83
-4.42
0.48
3.97
5.89
6.89
7.98
9.06
9.84
8.91
5.78
0.29
-6.16
-11.44
-13.95
-12.64
-8.59
-3.29
0.88
2.91
2.72
1.37
0.35
0.09
0.59
0.47
-0.97
-4.29
-8.49
-11.79
-12.84
-10.70
-6.50
-1.66
1.56
2.36
0.83
-1.74
-3.63
-4.26
-3.44
-2.51
-2.25
-3.44
-5.42
-6.81
-6.52
-3.76
0.43
4.76
7.14
6.88
4.09
0.14
-3.07
-4.59
-3.89
-2.05
0.15
1.56
2.26
2.89
3.99
6.10
8.35
9.91
9.32
6.44
1.60
-3.76
-7.88
-9.92
-9.33
-7.11
-4.00
-1.25
0.97
2.97
5.08
7.78
10.26
11.80
10.98
7.67
2.16
-4.05
-9.01
-11.58
-10.94
-7.98
-3.50
0.95
4.86
8.13
10.88
13.44
15.09
15.33
12.96
8.10
1.17
-6.17
-11.91
-14.86
-14.20
-10.94
-6.12
-1.49
2.24
4.99
7.07
9.14
10.76
11.55
10.24
6.67
0.94
-5.55
-10.84
-13.66
-13.05
-9.85
-5.07
-0.48
3.19
5.82
7.76
9.70
11.23
11.93
10.48
6.64
0.52
-6.42
-12.07
-15.02
-14.20
-10.48
-4.93
0.48
4.87
7.99
10.16
12.11
13.54
14.11
12.55
8.60
2.34
-4.72
-10.44
-13.32
-12.30
-8.40
-2.93
1.94
5.26
6.92
7.59
8.33
9.04
9.42
8.03
4.43
-1.49
-8.26
-13.70
-16.23
-14.77
-10.37
-4.45
0.70
4.04
5.43
5.68
6.02
6.57
7.11
6.19
3.20
-2.11
-8.40
-13.50
-15.78
-14.17
-9.77
-4.14
0.31
2.54
2.48
1.23
0.37
0.35
1.23
1.60
0.71
-2.05
-5.79
-8.78
-9.70
-7.58
-3.44
1.37
4.67
5.64
4.27
1.75
-0.26
-1.15
-0.64
0.06
0.24
-0.90
-2.82
-4.32
-4.46
-2.45
0.75
4.08
5.68
5.02
2.25
-1.37
-4.14
-5.40
-4.82
-3.62
-2.57
-2.63
-3.46
-4.02
-3.45
-0.99
2.47
5.90
7.48
6.73
3.76
-0.15
-3.30
-4.92
-4.57
-3.29
-1.76
-0.95
-0.66
-0.14
1.20
3.91
6.99
9.46
9.67
7.31
2.68
-2.69
-6.92
-9.05
-8.55
-6.55
-3.91
-1.96
-0.78
0.17
1.48
3.80
6.38
8.41
8.31
5.74
0.87
-4.86
-9.51
-11.94
-11.33
-8.56
-4.46
-0.50
2.89
5.81
8.48
11.31
13.51
14.39
12.62
8.19
1.53
-5.70
-11.43
-14.45
-13.95
-10.86
-6.10
-1.28
2.96
6.51
9.45
12.20
14.13
14.78
13.03
8.91
2.74
-3.99
-9.39
-12.33
-11.96
-9.11
-4.64
-0.13
3.81
7.06
9.75
12.28
14.02
14.47
12.43
7.92
1.25
-5.98
-11.74
-14.77
-14.18
-10.92
-6.07
-1.43
2.26
4.90
6.85
8.78
10.27
10.92
9.42
5.56
-0.51
-7.30
-12.72
-15.39
-14.31
-10.45
-4.99
0.07
3.88
6.27
7.76
9.23
10.48
11.20
10.04
6.66
1.01
-5.48
-10.72
-13.25
-12.08
-8.25
-3.11
1.16
3.69
4.46
4.31
4.53
5.20
6.10
5.75
3.49
-1.06
-6.73
-11.52
-13.88
-12.64
-8.62
-3.02
2.04
5.58
7.39
8.14
8.93
9.76
10.42
9.45
6.33
0.81
-5.73
-11.13
-13.71
-12.34
-8.02
-2.24
2.60
5.43
6.11
5.57
5.20
5.26
5.61
4.79
2.16
-2.69
-8.53
-13.28
-15.35
-13.60
-9.03
-3.10
1.83
4.69
5.30
4.61
4.08
4.07
4.61
4.31
2.52
-1.24
-5.89
-9.58
-10.88
-8.86
-4.61
0.38
3.82
4.81
3.41
0.90
-0.96
-1.51
-0.60
0.36
0.46
-1.23
-4.10
-6.68
-7.65
-5.94
-2.35
1.96
4.94
5.78
4.44
2.03
0.14
-0.67
-0.23
0.19
-0.18
-2.07
-4.80
-6.93
-7.32
-5.08
-1.19
3.12
5.79
6.08
4.03
0.84
-1.78
-3.07
-2.62
-1.54
-0.52
-0.50
-1.16
-1.54
-0.89
1.43
4.48
7.25
8.04
6.48
2.87
-1.44
-4.71
-6.24
-5.67
-4.17
-2.48
-1.61
-1.36
-0.92
0.33
2.97
6.08
8.74
9.31
7.46
3.43
-1.40
-5.24
-7.25
-6.89
-5.24
-3.06
-1.55
-0.70
0.06
1.27
3.52
6.01
7.93
7.74
5.17
0.44
-5.01
-9.33
-11.52
-10.91
-8.51
-5.13
-2.16
0.15
2.11
4.11
6.67
9.04
10.50
9.60
6.17
0.49
-5.89
-10.95
-13.48
-12.62
-9.28
-4.37
0.49
4.66
8.08
10.88
13.47
15.18
15.51
13.26
8.51
1.74
-5.40
-10.89
-13.59
-12.78
-9.48
-4.68
-0.03
3.91
7.09
9.70
12.18
13.87
14.27
12.17
7.62
0.99
-6.13
-11.75
-14.68
-14.14
-11.12
-6.66
-2.45
0.86
3.29
5.19
7.22
8.92
9.86
8.72
5.32
-0.23
-6.51
-11.56
-14.10
-13.22
-9.79
-4.83
-0.10
3.68
6.41
8.45
10.48
12.10
12.90
11.54
7.80
1.79
-4.99
-10.46
-13.19
-12.22
-8.52
-3.32
1.32
4.54
6.28
7.15
8.20
9.29
10.13
9.27
6.22
0.81
-5.63
-11.04
-13.92
-13.12
-9.46
-4.03
1.18
5.28
8.05
9.91
11.57
12.64
12.65
10.24
5.15
-2.36
-10.52
-16.89
-19.78
-18.18
-13.24
-6.58
-0.65
3.39
5.36
6.02
6.63
7.33
7.98
7.17
4.35
-0.73
-6.75
-11.62
-13.77
-12.14
-7.74
-1.95
3.01
6.21
7.57
7.92
8.45
9.16
9.74
8.65
5.31
-0.52
-7.42
-13.16
-16.02
-14.81
-10.51
-4.59
0.51
3.63
4.54
4.12
3.79
3.93
4.57
4.35
2.57
-1.32
-6.30
-10.50
-12.42
-10.94
-6.97
-1.85
2.18
4.16
3.97
2.63
1.66
1.51
2.28
2.65
1.91
-0.61
-4.10
-6.96
-7.90
-5.97
-2.10
2.40
5.37
5.98
4.21
1.26
-1.17
-2.37
-2.00
-1.27
-0.88
-1.69
-3.22
-4.32
-4.10
-1.85
1.41
4.59
5.85
4.73
1.42
-2.70
-5.91
-7.49
-7.07
-5.81
-4.45
-4.00
-4.18
-4.13
-3.11
-0.45
2.95
6.09
7.23
5.93
2.35
-2.13
-5.66
-7.31
-6.48
-4.20
-1.27
1.02
2.53
3.69
4.98
6.99
9.02
10.43
9.79
6.92
1.98
-3.70
-8.35
-10.94
-10.68
-8.34
-4.59
-0.79
2.67
5.80
8.71
11.71
13.99
14.95
13.34
9.21
2.94
-3.91
-9.43
-12.50
-12.28
-9.59
-5.19
-0.59
3.66
7.38
10.58
13.55
15.56
16.17
14.24
9.90
3.51
-3.38
-8.83
-11.68
-11.11
-8.07
-3.51
0.86
4.43
7.14
9.26
11.31
12.67
12.80
10.35
5.22
-2.27
-10.39
-16.87
-20.15
-19.18
-14.93
-8.70
-2.67
2.09
5.26
7.26
8.99
10.30
10.96
9.69
6.20
0.45
-6.19
-11.72
-14.72
-14.13
-10.72
-5.50
-0.34
3.93
7.03
9.29
11.38
12.95
13.66
12.20
8.28
1.87
-5.57
-11.89
-15.42
-14.94
-11.25
-5.61
-0.33
3.47
5.41
6.07
6.58
7.04
7.39
6.32
3.36
-1.75
-7.72
-12.55
-14.65
-12.89
-8.19
-1.88
3.75
7.66
9.52
10.06
10.41
10.67
10.75
9.32
5.89
0.19
-6.48
-12.06
-14.89
-13.82
-9.79
-4.24
0.38
2.89
2.98
1.59
0.28
-0.38
-0.16
-0.35
-1.68
-4.83
-8.95
-12.32
-13.47
-11.30
-6.72
-1.11
3.21
5.24
4.80
3.00
1.45
0.72
1.03
1.09
0.18
-2.42
-5.89
-8.61
-9.23
-6.73
-2.15
3.08
6.59
7.41
5.43
1.98
-1.02
-2.63
-2.31
-1.22
-0.19
-0.29
-1.24
-2.07
-1.88
0.15
3.19
6.28
7.64
6.78
3.75
-0.21
-3.44
-5.21
-5.08
-4.11
-2.98
-2.66
-2.92
-2.95
-2.02
0.51
3.77
6.80
7.83
6.42
2.61
-2.29
-6.43
-8.76
-8.50
-6.48
-3.38
-0.52
1.82
3.84
5.82
8.22
10.33
11.53
10.51
7.22
1.89
-4.04
-8.76
-11.23
-10.68
-7.96
-3.82
0.27
3.87
6.95
9.66
12.40
14.46
15.32
13.74
9.67
3.36
-3.68
-9.52
-12.92
-12.87
-10.15
-5.57
-0.81
3.43
6.92
9.74
12.27
13.89
14.09
11.69
6.70
-0.49
-8.22
-14.37
-17.62
-17.01
-13.45
-7.97
-2.41
2.40
6.19
9.11
11.69
13.42
13.96
12.10
7.79
1.26
-5.87
-11.49
-14.15
-12.92
-8.89
-3.43
1.28
4.31
5.61
5.91
6.37
7.00
7.55
6.60
3.60
-1.68
-7.91
-13.04
-15.48
-14.05
-9.60
-3.38
2.45
6.89
9.66
11.32
12.80
13.93
14.34
12.55
8.12
0.99
-7.20
-14.00
-17.53
-16.50
-11.94
-5.45
0.34
4.12
5.50
5.31
4.93
4.75
4.84
3.89
1.35
-3.18
-8.59
-13.00
-14.93
-13.37
-9.28
-4.03
0.16
2.35
2.40
1.27
0.35
0.02
0.40
0.20
-1.19
-4.32
-8.26
-11.32
-12.12
-9.68
-5.01
0.44
4.33
5.67
4.35
1.59
-0.80
-2.00
-1.57
-0.68
-0.09
-0.72
-2.09
-3.05
-2.63
-0.10
3.48
6.89
8.14
6.71
2.81
-2.03
-5.87
-7.77
-7.21
-5.33
-2.99
-1.38
-0.49
0.31
1.66
4.17
7.02
9.36
9.55
7.24
2.56
-3.08
-7.80
-10.45
-10.17
-7.71
-3.78
0.22
3.88
7.17
10.21
13.30
15.65
16.65
15.04
10.85
4.40
-2.74
-8.62
-12.04
-12.05
-9.37
-4.75
0.23
4.91
8.97
12.37
15.34
17.20
17.49
15.14
10.22
3.10
-4.66
-11.03
-14.68
-14.59
-11.57
-6.61
-1.56
2.70
5.89
8.22
10.30
11.75
12.26
10.60
6.64
0.49
-6.36
-11.88
-14.64
-13.65
-9.82
-4.34
0.76
4.59
6.92
8.27
9.53
10.46
10.73
8.95
4.72
-1.98
-9.57
-15.76
-18.78
-17.48
-12.89
-6.60
-1.13
2.30
3.43
3.16
2.91
3.01
3.48
2.96
0.87
-3.20
-8.10
-11.97
-13.41
-11.46
-7.23
-2.14
1.59
3.10
2.38
0.55
-0.84
-1.33
-0.76
-0.44
-1.02
-3.19
-6.16
-8.42
-8.75
-6.25
-1.91
2.94
6.10
6.73
4.77
1.46
-1.39
-2.97
-2.80
-2.02
-1.35
-1.78
-2.89
-3.63
-3.06
-0.43
3.29
6.91
8.44
7.29
3.55
-1.32
-5.37
-7.55
-7.21
-5.42
-3.01
-1.26
-0.23
0.64
1.96
4.39
7.14
9.39
9.49
7.05
2.18
-3.72
-8.68
-11.48
-11.17
-8.49
-4.21
0.16
4.09
7.53
10.59
13.60
15.78
16.52
14.59
10.02
3.27
-3.97
-9.64
-12.53
-11.82
-8.50
-3.53
1.37
5.59
9.00
11.80
14.39
16.11
16.43
14.10
9.12
1.87
-5.98
-12.29
-15.68
-15.20
-11.80
-6.62
-1.59
2.40
5.13
6.98
8.73
10.14
10.97
9.95
6.81
1.47
-4.82
-10.16
-13.18
-12.80
-9.72
-4.88
-0.10
3.79
6.52
8.42
10.15
11.39
11.78
10.02
5.84
-0.74
-8.21
-14.33
-17.43
-16.34
-11.97
-5.74
-0.04
3.94
5.89
6.48
6.94
7.40
7.72
6.53
3.29
-2.24
-8.68
-13.88
-16.20
-14.54
-9.90
-3.77
1.52
4.90
6.18
6.21
6.26
6.55
6.96
6.13
3.48
-1.33
-7.03
-11.60
-13.45
-11.53
-7.00
-1.47
2.54
3.92
2.63
-0.07
-2.37
-3.51
-3.24
-2.89
-3.25
-5.14
-7.84
-9.87
-10.03
-7.46
-3.20
1.45
4.38
4.87
2.96
-0.08
-2.52
-3.57
-2.82
-1.36
0.14
0.70
0.57
0.63
1.55
3.95
6.90
9.42
9.82
7.74
3.45
-1.59
-5.51
-7.42
-6.84
-4.93
-2.57
-1.03
-0.28
0.34
1.51
3.89
6.69
9.03
9.27
7.08
2.65
-2.59
-6.78
-8.95
-8.45
-6.27
-3.21
-0.55
1.52
3.36
5.37
8.10
10.76
12.64
12.28
9.46
4.37
-1.52
-6.30
-8.80
-8.18
-5.32
-1.01
3.22
6.88
9.97
12.67
15.36
17.32
17.98
16.13
11.82
5.44
-1.43
-6.83
-9.60
-8.86
-5.45
-0.25
5.07
9.72
13.39
16.10
18.27
19.33
18.79
15.29
8.59
-1.07
-11.74
-20.61
-25.44
-24.76
-19.65
-12.14
-5.35
-0.98
0.59
0.28
-0.32
-0.90
-1.58
-3.69
-7.49
-12.78
-17.98
-21.18
-21.51
-18.76
-14.37
-9.54
-5.67
-2.84
-0.69
1.37
3.86
6.21
7.89
7.62
5.20
0.59
-4.92
-9.50
-11.88
-11.09
-8.11
-4.15
-1.20
0.18
0.22
0.03
0.86
2.55
4.52
4.98
3.25
-0.89
-5.94
-9.79
-10.95
-8.61
-4.00
1.37
5.32
7.10
6.81
5.52
4.58
4.16
4.16
3.20
0.80
-3.31
-7.85
-10.92
-11.22
-8.05
-2.85
2.66
6.03
6.48
4.20
0.73
-1.98
-3.07
-2.25
-0.79
0.49
0.66
0.18
0.13
1.33
4.33
7.94
10.93
11.39
8.90
3.78
-2.31
-7.28
-9.90
-9.41
-6.76
-2.86
0.78
3.70
6.07
8.16
10.47
12.28
13.01
11.40
7.56
2.02
-3.55
-7.31
-8.47
-6.74
-3.49
0.25
3.10
4.98
6.34
7.74
9.83
11.97
13.59
13.30
10.81
6.07
0.20
-5.13
-8.76
-9.58
-8.02
-4.60
-0.76
2.84
5.93
8.53
11.07
12.98
13.82
12.32
8.26
1.74
-5.79
-12.20
-15.91
-15.64
-12.12
-6.43
-0.75
3.76
6.59
8.06
9.05
9.55
9.52
7.86
4.34
-1.15
-7.34
-12.36
-14.90
-13.98
-10.48
-5.47
-0.82
2.79
5.26
7.16
9.20
10.97
11.92
10.55
6.53
-0.04
-7.43
-13.29
-15.90
-14.27
-9.60
-3.60
1.17
3.51
3.25
1.46
-0.22
-1.14
-1.01
-1.02
-1.84
-4.19
-7.34
-9.82
-10.46
-8.37
-4.56
-0.33
2.24
2.42
0.31
-2.73
-4.93
-5.60
-4.47
-2.90
-1.78
-2.07
-3.29
-4.22
-3.78
-1.16
2.66
6.46
8.21
7.25
3.72
-0.93
-4.73
-6.62
-5.98
-3.88
-1.20
0.71
1.69
2.26
3.03
4.76
6.83
8.55
8.39
6.00
1.48
-3.84
-8.15
-10.43
-9.98
-7.77
-4.60
-1.86
0.17
1.79
3.42
5.66
7.83
9.32
8.72
5.83
0.78
-5.08
-9.96
-12.74
-12.48
-9.88
-5.57
-0.98
3.34
7.23
10.63
13.79
15.95
16.60
14.61
10.11
3.54
-3.47
-8.98
-11.87
-11.35
-8.38
-3.87
0.58
4.41
7.56
10.23
12.82
14.66
15.23
13.29
8.81
2.08
-5.29
-11.26
-14.48
-14.00
-10.73
-5.75
-1.00
2.68
5.12
6.70
8.21
9.38
9.89
8.45
4.78
-1.11
-7.77
-13.11
-15.64
-14.30
-10.05
-4.11
1.38
5.49
7.99
9.45
10.76
11.71
11.93
9.97
5.46
-1.52
-9.28
-15.39
-18.11
-16.44
-11.70
-5.72
-1.11
1.02
0.76
-0.64
-1.48
-1.31
-0.26
0.07
-1.21
-4.69
-9.26
-12.97
-14.29
-12.20
-7.79
-2.60
1.01
2.06
0.55
-2.28
-4.67
-5.88
-5.60
-4.97
-4.56
-5.01
-5.70
-5.59
-4.14
-1.10
2.27
5.04
5.98
5.36
3.85
2.69
2.98
4.62
7.33
9.73
11.20
10.98
9.53
7.92
7.11
8.09
10.30
12.88
13.96
12.74
8.99
3.82
-0.97
-4.25
-5.21
-4.63
-3.13
-1.81
-0.64
0.95
3.40
7.10
10.90
13.63
13.48
10.06
3.69
-3.85
-10.20
-13.84
-13.66
-10.55
-5.52
-0.47
3.72
6.80
8.94
10.77
11.91
12.07
10.11
5.87
-0.58
-7.86
-13.99
-17.58
-17.50
-14.47
-9.50
-4.52
-0.45
2.42
4.42
6.33
7.94
8.98
8.19
5.26
0.11
-5.98
-11.11
-13.92
-13.37
-10.25
-5.53
-1.03
2.51
4.97
6.78
8.67
10.24
11.05
9.68
5.82
-0.47
-7.64
-13.48
-16.37
-15.19
-10.85
-4.66
1.13
5.45
7.94
9.12
9.95
10.37
10.19
8.14
3.94
-2.37
-9.21
-14.43
-16.58
-14.87
-10.59
-5.36
-1.46
0.29
-0.02
-1.25
-1.90
-1.60
-0.33
0.56
0.36
-1.61
-4.61
-7.19
-8.16
-6.56
-3.23
0.74
3.40
4.08
2.76
0.52
-1.18
-1.89
-1.45
-1.09
-1.39
-2.95
-5.01
-6.22
-5.64
-2.73
1.23
4.84
6.06
4.39
0.18
-4.92
-8.88
-10.67
-9.74
-7.24
-4.04
-1.43
0.49
2.22
4.20
6.93
9.50
11.10
10.24
6.80
1.17
-5.01
-9.77
-12.02
-11.02
-7.75
-3.05
1.59
5.73
9.38
12.62
15.75
17.90
18.43
16.09
11.02
3.75
-3.95
-9.96
-13.08
-12.52
-9.30
-4.47
0.25
4.20
7.27
9.67
11.92
13.46
13.88
12.01
7.80
1.48
-5.47
-11.13
-14.21
-13.71
-10.36
-5.00
0.69
5.95
10.49
14.34
17.82
20.22
20.97
18.76
13.51
5.58
-3.23
-10.53
-14.61
-14.31
-10.57
-4.77
0.76
4.78
6.89
7.56
7.89
8.00
7.89
6.35
2.99
-2.46
-8.76
-13.97
-16.53
-15.26
-10.93
-4.72
1.24
5.92
8.97
10.85
12.44
13.53
13.82
11.94
7.59
0.86
-6.59
-12.40
-14.92
-13.13
-8.24
-1.91
3.38
6.50
7.29
6.70
6.20
6.20
6.83
6.82
5.55
2.45
-1.60
-4.95
-6.26
-4.47
-0.48
4.32
7.57
8.13
5.87
2.13
-0.95
-2.29
-1.47
-0.20
-0.08
-2.79
-8.08
-14.13
-18.80
-20.07
-18.24
-14.62
-11.90
-11.52
-13.79
-17.34
-20.03
-20.87
-19.52
-17.43
-15.63
-15.11
-15.32
-15.04
-13.42
-9.92
-5.68
-1.64
0.88
2.13
2.83
4.10
6.64
9.63
12.07
12.25
9.96
5.60
1.03
-1.63
-1.21
2.65
8.32
14.06
17.57
18.09
15.64
11.53
7.60
4.91
4.13
4.20
4.10
2.29
-1.22
-5.23
-8.06
-7.87
-4.88
-0.26
3.23
3.89
0.99
-4.27
-9.74
-14.11
-16.68
-18.50
-20.09
-21.86
-22.66
-21.01
-16.35
-9.09
-1.57
4.28
6.86
6.76
5.41
4.86
6.50
10.02
14.59
18.33
20.42
20.27
18.77
17.31
16.95
18.48
20.94
23.12
22.87
19.32
12.34
3.45
-4.89
-10.84
-12.98
-11.92
-8.59
-4.80
-1.31
1.77
4.63
7.71
10.20
11.34
9.66
5.01
-2.16
-9.98
-16.08
-18.97
-17.76
-13.55
-7.63
-2.03
2.38
5.54
7.82
9.98
11.64
12.37
10.84
6.85
0.54
-6.60
-12.57
-16.00
-15.85
-12.86
-7.88
-2.55
2.37
6.59
10.05
13.05
14.90
15.16
12.71
7.67
0.45
-7.28
-13.44
-16.68
-16.06
-12.46
-6.92
-1.33
3.43
7.10
9.84
12.23
13.82
14.26
12.36
8.07
1.62
-5.47
-11.18
-14.24
-13.74
-10.67
-6.06
-1.71
1.69
4.07
5.84
7.68
9.18
9.91
8.56
4.90
-1.00
-7.66
-13.07
-15.79
-14.84
-11.10
-5.70
-0.65
3.21
5.66
7.13
8.47
9.43
9.77
8.21
4.58
-1.10
-7.37
-12.34
-14.74
-13.74
-10.35
-5.65
-1.42
1.82
4.11
6.06
8.28
10.14
10.91
9.03
4.30
-2.86
-10.34
-15.86
-17.69
-15.42
-10.52
-4.73
-0.32
2.07
2.33
1.41
0.11
-1.13
-1.89
-2.36
-1.95
-0.78
1.45
4.34
7.34
10.02
11.84
12.98
12.99
11.92
9.11
4.56
-1.36
-7.53
-12.13
-14.02
-12.32
-8.03
-2.31
2.81
6.43
8.36
9.15
9.80
10.24
10.31
8.70
5.03
-0.81
-7.41
-12.62
-14.86
-13.10
-8.46
-2.55
2.16
4.54
4.44
2.91
1.58
0.95
1.20
0.99
-0.40
-3.57
-7.60
-10.73
-11.55
-9.11
-4.52
0.70
4.21
5.09
3.42
0.59
-1.55
-2.30
-1.50
-0.64
-0.69
-2.56
-5.57
-8.14
-8.87
-6.68
-2.43
2.57
6.07
7.16
5.69
2.87
0.46
-0.74
-0.33
0.51
0.98
0.13
-1.64
-3.13
-3.34
-1.36
1.96
5.54
7.46
7.09
4.45
0.82
-2.09
-3.52
-3.07
-1.94
-0.93
-1.08
-2.07
-2.82
-2.37
0.08
3.60
7.03
8.39
7.06
3.16
-1.84
-5.94
-8.10
-7.69
-5.80
-3.30
-1.48
-0.37
0.64
2.15
4.78
7.68
9.95
9.95
7.36
2.44
-3.33
-8.00
-10.54
-10.27
-8.19
-5.12
-2.43
-0.35
1.46
3.39
5.96
8.41
9.99
9.27
6.07
0.64
-5.51
-10.43
-12.99
-12.39
-9.55
-5.31
-1.21
2.28
5.20
7.77
10.42
12.44
13.26
11.60
7.44
1.14
-5.69
-11.07
-13.79
-13.02
-9.69
-4.73
0.20
4.46
7.94
10.74
13.30
14.94
15.18
12.81
7.86
0.74
-6.91
-13.03
-16.33
-15.90
-12.64
-7.50
-2.20
2.52
6.45
9.64
12.46
14.24
14.54
12.19
7.31
0.35
-6.98
-12.60
-15.33
-14.39
-10.87
-5.90
-1.22
2.50
5.27
7.45
9.64
11.33
12.03
10.45
6.45
0.24
-6.64
-12.11
-14.84
-13.91
-10.27
-5.02
-0.05
3.85
6.60
8.55
10.44
11.82
12.25
10.34
5.92
-0.81
-8.22
-14.17
-17.21
-16.39
-12.67
-7.18
-1.81
2.63
5.96
8.47
10.81
12.55
13.33
11.89
8.07
2.02
-4.80
-10.40
-13.43
-12.88
-9.56
-4.44
0.65
4.89
8.02
10.25
12.16
13.37
13.58
11.72
7.78
2.00
-4.14
-8.79
-10.86
-9.61
-6.04
-1.10
3.64
7.72
11.18
14.35
17.64
20.25
21.33
19.22
13.50
4.34
-6.45
-16.05
-22.11
-22.72
-18.40
-10.67
-2.73
3.02
5.20
4.03
1.20
-2.05
-4.68
-7.46
-11.13
-16.69
-23.66
-30.37
-35.02
-35.84
-33.01
-27.20
-20.16
-12.64
-4.91
3.00
10.87
17.04
19.95
17.87
11.29
1.93
-6.93
-12.08
-12.10
-7.00
0.92
9.35
15.79
19.35
20.17
19.13
17.56
15.71
13.69
10.34
5.02
-2.80
-12.02
-20.50
-26.19
-27.32
-24.40
-18.69
-12.59
-7.25
-2.85
1.23
5.63
9.41
11.29
9.46
4.15
-3.11
-9.25
-11.35
-8.55
-1.50
7.12
15.18
20.89
24.20
25.74
26.31
26.67
26.47
25.51
22.80
18.20
11.55
3.88
-3.10
-7.88
-9.01
-6.87
-2.44
2.03
5.17
6.40
6.21
5.84
5.60
5.50
4.14
0.81
-4.90
-11.76
-17.55
-20.45
-19.13
-14.43
-7.86
-1.91
2.09
3.83
4.10
4.32
4.82
5.57
5.11
2.71
-2.11
-8.23
-13.60
-16.51
-15.60
-11.57
-5.64
-0.01
4.14
6.47
7.50
8.28
8.80
8.90
7.24
3.38
-2.80
-9.87
-15.60
-18.25
-16.62
-11.64
-4.73
1.68
6.35
8.92
9.97
10.66
11.10
11.17
9.54
5.76
-0.33
-7.32
-13.03
-15.84
-14.59
-10.27
-4.25
1.20
5.02
7.01
7.83
8.61
9.37
9.92
8.86
5.69
0.22
-6.19
-11.45
-13.99
-12.73
-8.69
-3.25
1.37
4.19
5.11
4.96
5.03
5.45
6.05
5.39
2.84
-2.00
-7.96
-13.01
-15.57
-14.37
-10.17
-4.14
1.57
5.85
8.37
9.64
10.65
11.35
11.57
9.97
6.13
-0.05
-7.14
-12.96
-15.86
-14.70
-10.39
-4.30
1.28
5.27
7.37
8.21
8.87
9.39
9.60
8.18
4.67
-1.09
-7.73
-13.11
-15.63
-14.17
-9.69
-3.59
1.83
5.50
7.18
7.62
8.04
8.58
9.10
8.21
5.33
0.17
-5.99
-11.04
-13.38
-11.89
-7.56
-1.81
3.04
5.95
6.80
6.47
6.30
6.51
6.98
6.24
3.64
-1.22
-7.14
-12.12
-14.57
-13.33
-9.24
-3.55
1.56
5.10
6.86
7.51
8.17
8.86
9.37
8.29
5.04
-0.60
-7.33
-12.99
-15.91
-14.83
-10.58
-4.46
1.24
5.35
7.53
8.37
8.96
9.42
9.60
8.21
4.77
-0.92
-7.52
-12.93
-15.54
-14.20
-9.79
-3.59
2.18
6.42
8.83
9.94
10.78
11.36
11.53
10.03
6.47
0.76
-5.75
-11.00
-13.49
-12.19
-8.03
-2.30
2.87
6.51
8.46
9.32
10.16
10.98
11.60
10.73
8.00
3.28
-2.17
-6.41
-8.16
-6.49
-2.43
2.82
7.26
10.04
11.09
11.11
11.24
11.52
11.71
10.24
6.22
-1.03
-10.47
-19.74
-26.47
-28.39
-25.54
-19.03
-11.74
-5.88
-2.76
-2.26
-3.03
-4.27
-5.34
-7.03
-9.59
-13.31
-17.17
-19.61
-19.74
-17.09
-12.97
-8.41
-4.71
-1.66
1.58
5.76
11.16
16.31
19.61
19.08
14.59
6.98
-1.30
-7.55
-10.17
-8.42
-3.58
2.92
8.99
13.71
16.86
18.71
19.90
20.04
18.76
14.82
8.04
-1.35
-11.56
-20.07
-24.93
-24.73
-20.33
-13.24
-6.09
-0.46
3.03
4.71
5.63
5.88
5.44
3.21
-0.92
-6.77
-12.87
-17.49
-19.82
-19.53
-17.84
-15.47
-13.25
-10.67
-6.95
-1.80
4.58
10.49
14.60
15.57
13.95
10.88
8.27
7.66
9.14
12.32
15.57
18.05
18.94
18.84
18.77
19.56
21.81
24.54
26.56
25.85
21.69
14.04
4.58
-4.16
-10.30
-12.45
-11.33
-8.06
-4.60
-1.79
0.37
2.25
4.57
6.70
7.95
6.77
2.88
-3.43
-10.46
-15.97
-18.61
-17.58
-14.03
-9.15
-4.80
-1.62
0.50
2.04
3.83
5.52
6.73
6.13
3.45
-1.28
-6.85
-11.46
-14.02
-13.70
-11.28
-7.53
-3.89
-0.80
1.84
4.25
6.90
9.13
10.40
9.47
6.33
1.29
-4.23
-8.49
-10.60
-10.00
-7.73
-4.61
-1.99
-0.09
1.40
2.90
5.06
7.29
9.08
9.14
7.27
3.62
-0.68
-4.11
-5.99
-5.87
-4.73
-3.23
-2.41
-2.17
-1.85
-0.89
1.31
3.97
6.32
6.86
5.29
1.81
-2.35
-5.55
-7.05
-6.45
-4.86
-3.07
-2.15
-1.93
-1.56
-0.33
2.39
5.68
8.52
9.16
7.23
3.08
-1.78
-5.42
-6.99
-6.17
-4.30
-2.39
-1.66
-1.98
-2.43
-2.18
-0.38
2.25
4.94
6.08
5.26
2.65
-0.61
-3.00
-3.99
-3.36
-2.36
-1.72
-2.32
-3.68
-4.69
-4.43
-2.16
1.19
4.59
6.25
5.69
3.16
-0.08
-2.40
-3.27
-2.60
-1.80
-1.77
-3.37
-5.99
-8.23
-8.88
-6.94
-3.20
1.26
4.49
5.75
5.03
3.34
2.12
1.78
2.37
2.55
1.61
-1.07
-4.63
-7.44
-8.20
-5.92
-1.52
3.77
7.86
9.89
9.81
8.57
7.59
7.25
7.57
7.20
5.50
1.95
-2.45
-5.93
-7.14
-5.09
-0.78
4.46
8.46
10.26
9.81
8.08
6.62
5.92
6.08
5.68
3.87
-0.09
-5.31
-9.89
-12.14
-10.74
-6.54
-1.13
2.85
4.12
2.67
-0.06
-1.95
-2.32
-1.43
-1.53
-4.32
-10.80
-19.67
-28.06
-33.28
-33.34
-28.94
-21.69
-14.16
-7.54
-1.98
2.91
7.49
10.55
10.83
6.83
-0.83
-10.26
-18.17
-21.47
-19.10
-11.51
-1.44
8.53
15.86
19.87
21.00
20.26
18.96
17.15
14.72
10.55
4.50
-3.20
-10.93
-16.56
-18.78
-16.95
-12.52
-7.05
-2.62
0.23
1.94
3.42
5.58
7.79
9.15
8.09
4.57
-0.70
-5.69
-8.37
-8.09
-5.01
-0.93
2.91
5.39
6.87
8.30
10.37
13.49
16.53
18.40
17.49
13.68
7.41
0.39
-5.26
-8.31
-7.93
-5.09
-0.75
3.42
6.80
9.40
11.45
13.49
14.95
15.32
13.37
9.11
2.99
-3.38
-8.06
-10.10
-9.07
-6.23
-2.65
0.26
2.29
3.94
5.71
8.24
10.80
12.72
12.54
10.01
5.31
-0.24
-4.77
-7.20
-6.74
-4.30
-0.82
2.09
3.91
4.87
5.52
6.76
8.25
9.49
8.99
6.31
1.50
-4.11
-8.62
-11.01
-10.70
-8.94
-6.81
-5.74
-5.82
-6.24
-6.06
-4.29
-1.48
1.58
3.12
2.55
-0.14
-3.75
-6.53
-7.67
-6.77
-5.09
-3.58
-3.43
-4.46
-5.61
-5.85
-4.15
-1.09
2.46
4.71
4.98
3.23
0.48
-1.71
-2.76
-2.40
-1.82
-1.76
-3.05
-5.19
-6.91
-7.16
-5.06
-1.45
2.63
5.31
5.96
4.64
2.42
0.77
0.10
0.45
0.43
-0.73
-3.69
-7.60
-10.76
-11.78
-9.57
-5.05
0.45
4.71
6.74
6.49
5.00
3.83
3.40
3.70
3.26
1.28
-2.79
-7.89
-12.07
-13.76
-11.83
-7.16
-1.08
4.19
7.66
9.16
9.43
9.69
10.00
10.16
8.73
5.18
-0.69
-7.43
-12.80
-15.13
-13.34
-8.57
-2.44
2.58
5.35
5.84
5.05
4.52
4.58
5.12
4.62
2.27
-2.41
-8.27
-13.23
-15.63
-14.16
-9.62
-3.26
2.72
7.19
9.87
11.28
12.42
13.21
13.37
11.50
7.20
0.48
-7.06
-13.12
-16.00
-14.61
-10.00
-3.60
2.30
6.62
9.14
10.39
11.35
11.88
11.71
9.49
4.92
-1.91
-9.41
-15.32
-18.07
-16.64
-12.10
-5.86
-0.12
4.10
6.70
8.21
9.62
10.74
11.21
9.63
5.68
-0.57
-7.56
-13.12
-15.82
-14.72
-10.87
-5.48
-0.50
3.30
5.86
7.66
9.48
10.97
11.71
10.35
6.70
0.86
-5.65
-10.80
-13.29
-12.25
-8.68
-3.67
0.95
4.46
6.85
8.51
10.17
11.41
11.84
10.15
6.19
0.13
-6.56
-11.89
-14.66
-13.97
-10.76
-5.98
-1.30
2.65
5.81
8.39
10.91
12.76
13.45
11.72
7.53
1.22
-5.63
-11.00
-13.71
-12.94
-9.68
-4.90
-0.26
3.62
6.72
9.26
11.78
13.74
14.69
13.41
9.83
4.20
-2.07
-7.14
-9.93
-9.64
-7.15
-3.27
0.53
3.78
6.51
8.85
11.23
12.96
13.55
11.89
8.04
2.41
-3.56
-8.15
-10.51
-10.11
-7.97
-4.88
-2.10
0.20
2.36
4.73
7.79
10.78
13.03
13.21
11.22
7.44
3.29
0.44
-0.42
0.81
2.54
3.31
1.50
-2.84
-8.27
-12.73
-14.07
-12.20
-8.28
-5.43
-6.01
-11.30
-20.19
-29.72
-37.18
-40.40
-39.63
-35.66
-30.02
-23.11
-14.87
-5.74
3.34
9.94
12.43
9.85
3.73
-3.38
-8.52
-9.65
-6.82
-0.99
5.45
10.89
13.76
14.00
12.51
10.52
9.70
10.30
12.11
13.50
13.68
12.39
10.52
9.39
9.05
9.02
7.47
3.81
-1.64
-6.62
-8.51
-6.00
0.71
8.96
15.97
19.14
18.21
14.42
10.24
8.05
8.52
11.22
13.87
14.70
12.27
7.24
1.58
-2.68
-3.87
-2.54
0.05
1.56
1.01
-1.58
-4.84
-6.94
-7.27
-5.93
-4.66
-4.72
-7.12
-11.05
-14.62
-16.01
-13.85
-8.90
-2.63
2.38
4.81
4.39
2.25
0.24
-0.78
-0.51
-0.32
-1.17
-3.98
-8.04
-11.61
-13.10
-11.18
-6.54
-0.40
4.97
8.41
9.59
9.25
8.72
8.35
8.17
6.89
3.92
-1.10
-6.98
-11.67
-13.58
-11.63
-6.89
-0.94
3.79
6.20
6.21
4.89
3.82
3.43
3.67
3.04
0.73
-3.82
-9.46
-14.14
-16.17
-14.31
-9.48
-3.11
2.45
6.04
7.47
7.58
7.72
8.13
8.65
7.78
4.83
-0.57
-7.11
-12.57
-15.18
-13.66
-8.93
-2.45
3.34
7.18
8.79
8.92
8.89
8.95
9.04
7.78
4.57
-0.90
-7.35
-12.67
-15.18
-13.69
-9.14
-2.91
2.68
6.52
8.39
8.98
9.48
9.90
10.03
8.40
4.53
-1.74
-8.90
-14.68
-17.39
-15.88
-11.19
-4.78
0.97
4.95
6.94
7.62
8.21
8.76
9.13
7.94
4.71
-0.77
-7.16
-12.41
-14.97
-13.71
-9.52
-3.59
1.99
6.26
8.97
10.59
12.00
12.99
13.25
11.42
7.16
0.52
-6.97
-13.08
-16.19
-15.20
-11.07
-5.11
0.48
4.67
7.20
8.56
9.70
10.46
10.60
8.82
4.86
-1.25
-8.03
-13.40
-15.95
-14.75
-10.81
-5.35
-0.39
3.25
5.51
6.90
8.31
9.47
10.03
8.61
4.91
-1.05
-7.78
-13.16
-15.74
-14.50
-10.41
-4.69
0.61
4.61
7.14
8.69
10.14
11.24
11.67
10.09
6.21
0.09
-6.78
-12.33
-15.15
-14.28
-10.63
-5.33
-0.29
3.68
6.42
8.30
10.09
11.43
11.98
10.47
6.66
0.63
-6.20
-11.82
-14.86
-14.30
-10.98
-5.92
-0.97
3.07
6.01
8.16
10.18
11.70
12.35
10.86
7.11
1.23
-5.29
-10.50
-13.17
-12.46
-9.38
-4.91
-0.77
2.49
4.90
6.80
8.82
10.39
11.02
9.40
5.41
-0.70
-7.39
-12.69
-15.36
-14.57
-11.22
-6.29
-1.48
2.55
5.69
8.16
10.51
12.22
12.88
11.28
7.38
1.43
-5.11
-10.31
-13.02
-12.41
-9.36
-4.79
-0.30
3.50
6.54
8.99
11.31
12.90
13.25
11.16
6.62
-0.01
-7.15
-12.78
-15.66
-14.94
-11.54
-6.42
-1.30
3.14
6.75
9.64
12.24
13.89
14.12
11.76
6.92
0.06
-7.16
-12.76
-15.64
-15.12
-12.24
-7.94
-3.76
-0.17
2.90
5.69
8.62
10.94
12.03
10.59
6.60
0.44
-6.26
-11.51
-14.19
-13.54
-10.55
-6.14
-1.87
1.78
4.85
7.54
10.28
12.33
13.14
11.47
7.35
1.21
-5.38
-10.49
-13.07
-12.45
-9.65
-5.58
-1.78
1.33
3.87
6.09
8.50
10.46
11.47
10.31
6.94
1.67
-4.08
-8.57
-10.90
-10.50
-8.41
-5.45
-2.96
-1.17
0.29
1.84
4.08
6.35
8.04
7.77
5.39
1.12
-3.70
-7.38
-9.12
-8.41
-6.36
-3.77
-1.85
-0.61
0.55
2.20
4.96
8.04
10.59
11.00
8.95
4.64
-0.51
-4.62
-6.79
-6.46
-4.77
-2.57
-1.16
-0.63
-0.41
0.08
1.60
3.57
5.46
5.96
4.81
2.10
-1.16
-3.60
-4.70
-4.12
-2.92
-1.75
-1.54
-2.05
-2.43
-1.93
0.15
3.04
5.88
7.00
5.98
2.96
-0.87
-3.87
-5.38
-5.05
-4.03
-3.09
-3.19
-4.05
-4.70
-4.30
-2.09
1.15
4.52
6.32
6.06
3.88
0.90
-1.31
-2.20
-1.56
-0.63
-0.14
-0.97
-2.61
-3.87
-3.80
-1.60
1.80
5.35
7.19
6.82
4.40
1.19
-1.20
-2.22
-1.74
-1.11
-1.15
-2.71
-5.20
-7.26
-7.75
-5.74
-2.08
2.14
4.95
5.64
4.23
1.83
-0.01
-0.76
-0.25
0.20
-0.14
-2.06
-4.89
-7.17
-7.73
-5.59
-1.61
3.06
6.41
7.66
6.78
4.82
3.29
2.65
2.96
2.84
1.49
-1.79
-6.13
-9.83
-11.41
-9.72
-5.59
-0.29
3.95
6.13
6.08
4.76
3.69
3.34
3.78
3.66
2.21
-1.19
-5.60
-9.22
-10.56
-8.55
-4.16
1.23
5.32
7.15
6.66
4.93
3.52
2.89
3.06
2.61
0.78
-3.04
-7.86
-11.86
-13.52
-11.70
-7.29
-1.59
3.13
5.84
6.33
5.49
4.75
4.50
4.84
4.47
2.74
-0.86
-5.37
-9.01
-10.35
-8.36
-4.00
1.39
5.58
7.63
7.47
6.10
5.02
4.63
4.93
4.50
2.57
-1.44
-6.55
-10.92
-13.01
-11.62
-7.55
-2.01
2.83
5.93
7.08
7.03
7.02
7.29
7.74
7.00
4.45
-0.31
-6.13
-10.95
-13.17
-11.60
-7.16
-1.27
3.68
6.57
7.19
6.44
5.83
5.76
6.24
5.85
3.82
-0.38
-5.69
-10.13
-12.08
-10.30
-5.63
0.61
6.13
9.81
11.37
11.55
11.61
11.77
11.98
10.93
8.06
3.08
-2.79
-7.53
-9.61
-7.99
-3.65
1.99
6.70
9.47
10.23
9.83
9.62
9.77
10.12
9.17
6.19
0.74
-5.92
-11.58
-14.35
-12.79
-7.71
-0.62
5.77
9.87
11.13
10.32
9.03
7.92
7.13
5.16
0.96
-6.23
-15.21
-23.36
-28.15
-27.63
-22.54
-14.85
-8.05
-4.32
-4.42
-7.24
-10.58
-13.17
-14.35
-15.18
-16.21
-17.86
-19.23
-18.97
-16.74
-12.80
-9.06
-6.73
-6.62
-7.59
-7.77
-5.50
-0.07
7.13
14.16
18.39
18.85
15.48
10.04
5.12
2.65
4.02
8.38
14.13
18.46
19.70
17.36
12.49
7.30
3.13
0.79
-0.73
-2.21
-4.51
-7.17
-9.16
-10.18
-10.21
-10.69
-12.22
-14.94
-17.14
-16.62
-11.97
-3.27
6.87
15.43
19.27
17.70
11.62
3.84
-2.28
-4.61
-1.99
4.42
12.92
20.80
26.46
29.15
29.09
27.34
24.30
20.39
14.90
7.83
-0.76
-9.42
-16.05
-19.13
-17.68
-12.89
-6.39
-0.66
3.09
4.75
5.18
5.74
6.60
7.49
6.82
3.84
-1.79
-8.76
-14.81
-18.18
-17.58
-13.82
-8.21
-2.99
0.76
2.79
3.70
4.58
5.44
6.10
5.20
2.27
-2.84
-8.84
-13.69
-15.93
-14.49
-10.26
-4.43
0.92
4.88
7.25
8.55
9.72
10.63
11.03
9.60
6.00
0.19
-6.47
-11.97
-14.91
-14.24
-10.79
-5.60
-0.50
3.70
6.86
9.22
11.36
12.75
12.84
10.33
5.13
-2.36
-10.38
-16.66
-19.78
-18.82
-14.80
-8.87
-2.98
2.04
5.95
8.95
11.59
13.39
13.99
12.22
8.08
1.85
-4.90
-10.19
-12.80
-11.90
-8.44
-3.43
1.41
5.41
8.50
10.89
13.15
14.75
15.24
13.43
9.29
3.11
-3.62
-9.04
-12.08
-11.99
-9.66
-5.90
-2.17
1.10
3.97
6.56
9.25
11.26
12.02
10.30
6.13
-0.09
-6.80
-12.06
-14.78
-14.17
-11.18
-6.68
-2.25
1.57
4.72
7.34
9.85
11.60
12.09
10.18
5.95
-0.14
-6.53
-11.35
-13.66
-12.94
-10.31
-6.73
-3.62
-1.29
0.59
2.47
4.96
7.44
9.30
9.16
6.81
2.42
-2.68
-6.72
-8.80
-8.34
-6.38
-3.76
-1.81
-0.64
0.23
1.40
3.56
6.07
8.26
8.63
6.88
3.12
-1.40
-5.01
-6.89
-6.51
-4.91
-2.86
-1.52
-0.88
-0.29
0.88
3.27
6.12
8.58
9.02
7.09
3.02
-1.79
-5.52
-7.29
-6.69
-4.91
-2.90
-1.93
-1.95
-2.16
-1.72
0.23
3.07
6.02
7.44
6.81
4.14
0.56
-2.34
-3.88
-3.66
-2.81
-2.06
-2.39
-3.45
-4.20
-3.70
-1.16
2.58
6.42
8.45
8.06
5.33
1.59
-1.36
-2.80
-2.42
-1.57
-1.16
-2.21
-4.26
-6.03
-6.37
-4.34
-0.79
3.17
5.56
5.69
3.63
0.63
-1.65
-2.59
-2.00
-1.25
-1.22
-2.79
-5.36
-7.49
-7.91
-5.63
-1.52
3.20
6.38
7.16
5.51
2.65
0.33
-0.69
-0.19
0.49
0.41
-1.36
-4.24
-6.73
-7.54
-5.63
-1.84
2.61
5.64
6.45
5.08
2.71
0.99
0.43
1.08
1.42
0.53
-2.43
-6.62
-10.26
-11.76
-9.85
-5.35
0.38
4.95
7.22
6.99
5.33
3.87
3.20
3.41
3.05
1.26
-2.62
-7.60
-11.73
-13.37
-11.31
-6.43
-0.15
5.16
8.40
9.37
8.98
8.64
8.64
8.89
7.91
4.96
-0.36
-6.81
-12.23
-14.84
-13.41
-8.87
-2.74
2.50
5.65
6.49
5.92
5.38
5.18
5.24
4.06
0.94
-4.51
-11.00
-16.29
-18.59
-16.65
-11.40
-4.33
2.07
6.56
8.80
9.50
9.94
10.32
10.53
9.18
5.74
-0.06
-6.85
-12.42
-15.08
-13.63
-9.04
-2.74
2.94
6.83
8.71
9.27
9.72
10.15
10.41
9.09
5.66
-0.06
-6.74
-12.20
-14.86
-13.56
-9.27
-3.34
2.03
5.79
7.77
8.57
9.28
9.83
9.98
8.36
4.54
-1.53
-8.42
-13.97
-16.64
-15.34
-11.01
-4.90
0.86
5.29
8.16
9.92
11.45
12.54
12.90
11.21
7.20
0.92
-6.13
-11.88
-14.87
-14.09
-10.48
-5.17
-0.07
3.98
6.85
8.86
10.72
12.04
12.38
10.45
6.08
-0.53
-7.78
-13.51
-16.31
-15.24
-11.29
-5.66
-0.32
3.89
6.83
8.86
10.73
12.07
12.50
10.77
6.73
0.59
-6.12
-11.38
-13.95
-12.97
-9.45
-4.42
0.36
4.25
7.24
9.60
11.88
13.47
13.79
11.54
6.67
-0.41
-7.96
-13.81
-16.63
-15.61
-11.80
-6.36
-1.11
3.19
6.46
8.93
11.18
12.75
13.26
11.58
7.72
1.99
-4.18
-8.97
-11.43
-10.95
-8.56
-5.14
-2.12
0.21
2.16
4.12
6.71
9.23
11.06
10.77
8.14
3.40
-2.05
-6.34
-8.51
-7.97
-5.83
-3.01
-0.91
0.31
1.14
2.17
4.11
6.37
8.31
8.54
6.81
3.31
-0.75
-3.77
-5.16
-4.64
-3.45
-2.45
-2.69
-3.91
-5.10
-5.31
-3.63
-0.72
2.56
4.46
4.40
2.38
-0.51
-2.72
-3.67
-3.10
-2.26
-1.91
-2.98
-4.97
-6.63
-6.85
-4.67
-0.87
3.50
6.51
7.41
6.16
3.83
1.97
1.12
1.43
1.57
0.73
-1.86
-5.44
-8.46
-9.58
-7.79
-3.95
0.71
4.10
5.38
4.50
2.50
0.90
0.13
0.27
-0.03
-1.49
-4.71
-8.82
-12.12
-13.24
-11.14
-6.67
-1.06
3.59
6.34
7.04
6.51
6.07
5.97
6.16
5.30
2.79
-1.78
-7.25
-11.64
-13.40
-11.44
-6.76
-0.82
3.99
6.59
6.83
5.71
4.75
4.38
4.61
4.03
1.88
-2.37
-7.67
-12.08
-14.04
-12.40
-8.03
-2.21
2.89
6.28
7.81
8.21
8.68
9.25
9.70
8.55
5.23
-0.45
-7.09
-12.46
-14.86
-13.14
-8.31
-1.89
3.70
7.31
8.74
8.80
8.82
9.03
9.32
8.27
5.29
0.09
-6.10
-11.22
-13.73
-12.51
-8.46
-2.81
2.33
6.03
8.12
9.18
10.19
11.01
11.34
9.76
5.87
-0.37
-7.50
-13.35
-16.35
-15.42
-11.50
-5.85
-0.61
3.23
5.45
6.57
7.51
8.15
8.24
6.48
2.57
-3.47
-10.18
-15.47
-17.88
-16.39
-11.94
-5.76
0.12
4.76
7.95
10.10
12.01
13.38
13.87
12.16
8.00
1.50
-5.78
-11.67
-14.70
-13.81
-9.98
-4.40
0.90
5.01
7.75
9.53
11.14
12.25
12.50
10.58
6.28
-0.24
-7.42
-13.13
-15.96
-15.00
-11.21
-5.77
-0.59
3.48
6.32
8.27
10.09
11.43
11.98
10.47
6.74
0.87
-5.74
-11.17
-14.17
-13.80
-10.91
-6.39
-1.91
1.88
4.86
7.23
9.51
11.14
11.67
9.87
5.71
-0.51
-7.22
-12.41
-14.84
-13.72
-10.04
-4.88
-0.01
3.88
6.73
8.84
10.84
12.26
12.71
10.98
7.01
1.02
-5.54
-10.81
-13.68
-13.34
-10.66
-6.49
-2.36
1.18
4.10
6.58
9.05
10.87
11.54
9.85
5.78
-0.31
-6.88
-11.95
-14.34
-13.30
-9.85
-5.03
-0.58
2.91
5.44
7.39
9.42
11.09
11.94
10.72
7.28
1.75
-4.49
-9.59
-12.43
-12.12
-9.47
-5.22
-0.85
3.08
6.47
9.37
12.09
13.88
14.20
11.88
7.02
0.07
-7.33
-13.18
-16.29
-15.83
-12.73
-7.88
-2.91
1.53
5.29
8.37
11.10
12.78
12.94
10.47
5.53
-1.37
-8.55
-14.00
-16.57
-15.56
-12.05
-7.09
-2.39
1.48
4.53
7.00
9.44
11.18
11.69
9.70
5.21
-1.39
-8.46
-13.95
-16.66
-15.83
-12.43
-7.46
-2.58
1.59
4.98
7.78
10.49
12.49
13.30
11.72
7.72
1.62
-5.05
-10.34
-13.07
-12.40
-9.24
-4.51
0.16
4.11
7.27
9.77
12.08
13.59
13.82
11.60
6.99
0.37
-6.71
-12.31
-15.31
-14.95
-12.16
-7.79
-3.37
0.59
4.05
7.10
10.03
12.07
12.65
10.59
6.01
-0.58
-7.50
-12.72
-15.13
-14.02
-10.51
-5.67
-1.23
2.18
4.62
6.44
8.35
9.88
10.62
9.35
5.94
0.57
-5.37
-10.09
-12.55
-12.02
-9.38
-5.43
-1.60
1.73
4.60
7.19
9.87
11.84
12.49
10.54
6.01
-0.69
-7.95
-13.72
-16.75
-16.13
-12.72
-7.43
-1.96
2.91
6.94
10.12
12.86
14.55
14.77
12.44
7.67
0.89
-6.31
-11.99
-15.04
-14.73
-12.02
-7.77
-3.50
0.31
3.63
6.55
9.42
11.46
12.12
10.20
5.81
-0.61
-7.46
-12.79
-15.49
-14.81
-11.71
-7.13
-2.68
1.09
4.13
6.65
9.13
10.97
11.72
10.18
6.33
0.47
-5.96
-11.09
-13.84
-13.40
-10.60
-6.20
-1.67
2.45
6.11
9.32
12.37
14.44
14.94
12.67
7.75
0.69
-6.80
-12.64
-15.62
-14.96
-11.63
-6.61
-1.59
2.76
6.28
9.05
11.49
12.98
13.14
10.91
6.42
0.10
-6.55
-11.70
-14.38
-13.92
-11.26
-7.19
-3.10
0.59
3.90
6.89
9.82
11.85
12.37
10.19
5.45
-1.34
-8.50
-13.99
-16.65
-15.71
-12.20
-7.12
-2.17
2.00
5.33
8.00
10.53
12.32
12.88
10.99
6.66
0.22
-6.75
-12.29
-15.21
-14.70
-11.63
-6.86
-1.98
2.42
6.22
9.45
12.43
14.40
14.83
12.54
7.64
0.59
-6.96
-12.94
-16.11
-15.58
-12.26
-7.09
-1.78
2.93
6.83
9.97
12.74
14.53
14.87
12.61
7.86
1.02
-6.24
-11.88
-14.72
-13.99
-10.73
-5.99
-1.50
2.13
4.89
7.07
9.25
10.91
11.60
10.09
6.29
0.39
-6.14
-11.42
-14.25
-13.73
-10.70
-6.07
-1.46
2.47
5.63
8.23
10.74
12.56
13.15
11.21
6.68
-0.13
-7.52
-13.35
-16.25
-15.33
-11.63
-6.31
-1.29
2.64
5.37
7.32
9.24
10.82
11.70
10.62
7.34
1.91
-4.32
-9.42
-12.12
-11.47
-8.35
-3.77
0.49
3.74
5.94
7.48
9.10
10.36
10.82
9.08
4.91
-1.59
-8.89
-14.86
-18.01
-17.21
-13.31
-7.36
-1.35
3.75
7.58
10.34
12.64
14.09
14.35
12.19
7.50
0.49
-7.19
-13.33
-16.41
-15.42
-11.37
-5.62
-0.33
3.48
5.65
6.71
7.69
8.49
8.87
7.50
4.01
-1.69
-8.22
-13.53
-16.16
-15.06
-11.15
-5.62
-0.49
3.37
5.78
7.32
8.88
10.27
11.17
10.16
6.85
1.13
-5.58
-11.14
-13.98
-12.98
-9.05
-3.49
1.49
4.84
6.34
6.63
6.93
7.38
7.93
7.28
4.90
0.43
-5.02
-9.58
-11.83
-10.68
-6.98
-1.88
2.60
5.61
7.07
7.67
8.49
9.46
10.25
9.39
6.34
0.89
-5.59
-10.91
-13.45
-12.09
-7.85
-2.20
2.47
5.10
5.56
4.79
4.24
4.22
4.69
4.22
2.13
-2.05
-7.25
-11.59
-13.56
-12.04
-7.88
-2.33
2.45
5.49
6.62
6.67
6.88
7.37
7.96
7.13
4.18
-1.24
-7.79
-13.19
-15.62
-13.83
-8.87
-2.40
2.95
5.90
6.23
4.99
3.82
3.28
3.54
3.25
1.71
-1.70
-6.05
-9.59
-10.93
-9.01
-4.70
0.72
5.10
7.50
7.81
6.96
6.33
6.22
6.56
5.86
3.39
-1.38
-7.27
-12.17
-14.37
-12.61
-7.87
-1.73
3.28
5.95
6.12
4.85
3.81
3.52
4.03
3.85
2.18
-1.61
-6.47
-10.43
-11.90
-9.74
-4.97
0.95
5.63
8.04
8.09
6.87
5.93
5.70
6.13
5.71
3.65
-0.63
-6.05
-10.65
-12.77
-11.20
-6.85
-1.10
3.68
6.36
6.71
5.65
4.66
4.19
4.35
3.80
1.87
-2.00
-6.81
-10.71
-12.18
-10.12
-5.43
0.49
5.35
8.07
8.49
7.58
6.82
6.61
6.95
6.41
4.22
-0.14
-5.56
-10.00
-11.83
-9.90
-5.25
0.53
4.97
6.97
6.46
4.60
3.08
2.39
2.56
2.09
0.14
-3.88
-8.92
-13.03
-14.60
-12.45
-7.48
-1.08
4.42
7.87
9.06
8.85
8.63
8.75
9.17
8.45
5.87
0.97
-5.05
-10.04
-12.28
-10.59
-6.03
-0.18
4.42
6.64
6.43
4.91
3.73
3.32
3.59
2.99
0.66
-3.91
-9.55
-14.12
-15.93
-13.81
-8.77
-2.35
3.02
6.20
7.10
6.70
6.48
6.76
7.42
6.92
4.44
-0.50
-6.70
-12.04
-14.72
-13.40
-8.89
-2.54
3.26
7.30
9.24
9.75
10.08
10.36
10.44
8.90
5.16
-0.98
-8.05
-13.77
-16.36
-14.64
-9.66
-2.97
2.92
6.81
8.46
8.64
8.67
8.76
8.83
7.51
4.22
-1.28
-7.67
-12.82
-15.12
-13.47
-8.89
-2.86
2.31
5.56
6.80
6.89
7.13
7.66
8.25
7.41
4.49
-0.82
-7.21
-12.50
-15.02
-13.57
-9.04
-2.78
2.92
6.96
9.08
9.92
10.55
10.98
10.95
9.07
4.91
-1.60
-8.92
-14.75
-17.43
-15.88
-11.22
-4.97
0.49
4.06
5.61
5.93
6.30
6.86
7.46
6.68
3.94
-1.04
-7.01
-11.96
-14.39
-13.18
-9.25
-3.79
1.14
4.64
6.56
7.55
8.63
9.72
10.54
9.69
6.66
1.27
-5.21
-10.71
-13.68
-12.92
-9.18
-3.57
1.88
6.17
9.00
10.71
12.12
12.97
12.99
10.90
6.46
-0.24
-7.68
-13.69
-16.73
-15.74
-11.63
-5.63
0.17
4.77
7.87
9.83
11.43
12.40
12.48
10.40
5.99
-0.63
-7.87
-13.59
-16.31
-15.08
-10.96
-5.28
-0.18
3.40
5.35
6.27
7.20
8.06
8.62
7.52
4.36
-1.01
-7.26
-12.41
-15.01
-13.99
-10.21
-4.76
0.43
4.52
7.34
9.31
11.18
12.60
13.15
11.44
7.23
0.66
-6.67
-12.54
-15.43
-14.35
-10.31
-4.62
0.58
4.38
6.62
7.83
8.99
9.94
10.42
9.11
5.67
0.03
-6.47
-11.83
-14.67
-13.93
-10.44
-5.22
-0.12
4.02
7.02
9.17
11.12
12.49
12.87
10.98
6.67
0.12
-7.05
-12.68
-15.35
-14.16
-10.21
-4.82
-0.06
3.23
5.04
5.98
7.02
7.96
8.41
6.99
3.34
-2.53
-9.17
-14.50
-17.09
-15.91
-11.82
-5.91
-0.12
4.68
8.24
10.83
13.15
14.84
15.56
14.07
10.18
4.04
-2.88
-8.56
-11.68
-11.33
-8.43
-4.04
0.06
3.21
5.38
6.97
8.67
10.02
10.56
8.92
4.86
-1.50
-8.65
-14.50
-17.62
-16.92
-13.22
-7.56
-1.85
3.00
6.67
9.34
11.62
13.12
13.55
11.74
7.58
1.28
-5.64
-11.20
-14.09
-13.44
-10.23
-5.59
-1.32
1.87
4.01
5.58
7.36
8.94
9.84
8.64
5.07
-0.73
-7.20
-12.26
-14.59
-13.43
-9.93
-5.38
-1.64
0.73
2.07
3.12
4.85
6.83
8.37
7.80
4.67
-0.95
-7.42
-12.56
-14.98
-13.89
-10.51
-6.11
-2.53
-0.25
1.14
2.47
4.69
7.26
9.36
9.19
6.23
0.58
-6.03
-11.30
-13.73
-12.48
-8.72
-3.74
0.52
3.45
5.28
6.64
8.44
10.27
11.56
10.82
7.68
2.22
-4.12
-9.35
-12.20
-11.76
-8.92
-4.56
-0.28
3.40
6.41
8.91
11.26
12.68
12.58
9.75
4.33
-3.20
-11.07
-17.30
-20.75
-20.71
-18.19
-14.09
-9.97
-6.30
-3.17
-0.48
1.98
3.39
3.17
0.23
-5.14
-12.31
-19.39
-24.71
-27.26
-26.85
-24.68
-21.52
-18.49
-15.47
-12.31
-8.62
-4.43
-0.29
3.56
6.54
9.15
11.40
13.83
16.41
18.95
21.41
23.32
24.81
25.21
24.37
21.69
17.24
11.56
5.62
0.89
-1.98
-2.36
-1.06
1.43
3.97
6.27
8.48
10.64
13.11
15.08
16.03
14.80
11.45
6.38
0.94
-3.20
-5.40
-5.23
-3.82
-1.96
-0.76
-0.17
0.43
1.63
4.07
6.93
9.41
9.90
8.06
4.03
-0.86
-4.83
-6.99
-6.76
-5.22
-3.17
-1.85
-1.28
-0.81
0.21
2.46
5.17
7.49
7.75
5.56
1.08
-4.27
-8.57
-10.81
-10.35
-8.25
-5.42
-3.25
-1.93
-0.94
0.29
2.46
4.91
6.96
7.12
5.14
1.22
-3.27
-6.62
-8.05
-7.18
-5.19
-2.97
-1.68
-1.21
-0.78
0.36
2.95
6.20
9.19
10.23
8.88
5.26
0.67
-3.12
-5.24
-5.12
-3.78
-1.91
-0.63
0.08
0.84
2.14
4.51
7.12
9.11
8.95
6.38
1.66
-3.75
-8.00
-10.13
-9.58
-7.48
-4.79
-2.94
-2.13
-1.79
-1.23
0.48
2.83
5.19
5.96
4.66
1.24
-3.12
-6.74
-8.73
-8.48
-6.99
-4.99
-3.64
-2.90
-2.12
-0.69
1.97
4.98
7.42
7.67
5.44
1.02
-4.11
-8.14
-10.17
-9.68
-7.76
-5.19
-3.16
-1.65
-0.14
1.84
4.77
7.75
9.91
9.76
7.15
2.43
-2.87
-6.88
-8.72
-7.92
-5.64
-2.79
-0.68
0.59
1.57
2.80
4.95
7.29
9.11
8.98
6.72
2.58
-2.08
-5.58
-7.19
-6.52
-4.68
-2.43
-0.86
0.13
1.18
2.86
5.63
8.54
10.59
10.13
6.89
1.20
-5.31
-10.55
-13.29
-12.74
-9.91
-5.75
-1.85
1.28
3.76
5.87
8.16
10.05
11.07
10.00
6.83
1.81
-3.68
-7.96
-10.18
-9.70
-7.47
-4.17
-1.08
1.55
3.93
6.30
9.05
11.32
12.42
10.98
6.96
0.75
-6.02
-11.32
-14.02
-13.39
-10.50
-6.35
-2.57
0.38
2.64
4.61
6.94
9.06
10.45
9.75
6.81
1.77
-3.99
-8.65
-11.20
-10.87
-8.54
-4.97
-1.55
1.31
3.76
6.00
8.46
10.41
11.26
9.73
5.80
-0.20
-6.74
-11.91
-14.61
-14.05
-11.17
-6.78
-2.41
1.44
4.78
7.72
10.60
12.67
13.36
11.47
7.12
0.79
-5.88
-10.97
-13.46
-12.71
-9.73
-5.38
-1.14
2.56
5.77
8.60
11.34
13.18
13.52
11.14
6.20
-0.82
-8.21
-13.90
-16.71
-15.82
-12.23
-6.94
-1.70
2.80
6.41
9.26
11.79
13.40
13.60
11.22
6.34
-0.58
-7.87
-13.47
-16.16
-15.16
-11.48
-6.16
-0.93
3.54
7.13
10.02
12.67
14.46
14.90
12.77
8.07
1.14
-6.41
-12.51
-15.85
-15.50
-12.36
-7.43
-2.49
1.69
4.91
7.37
9.62
11.19
11.69
9.91
5.78
-0.51
-7.48
-13.19
-16.34
-15.93
-12.71
-7.51
-1.98
3.14
7.57
11.28
14.53
16.59
16.95
14.45
9.22
1.80
-6.03
-12.08
-15.03
-14.12
-10.50
-5.45
-0.96
2.18
3.99
4.99
6.10
7.11
7.68
6.51
3.28
-2.04
-8.11
-12.99
-15.37
-14.31
-10.72
-5.64
-0.92
2.75
5.29
7.18
9.19
10.95
12.00
10.94
7.43
1.51
-5.37
-11.11
-14.24
-13.66
-10.14
-4.71
0.76
5.39
8.85
11.34
13.39
14.55
14.45
11.89
6.83
-0.39
-8.12
-14.18
-17.19
-16.27
-12.54
-7.26
-2.47
1.05
3.25
4.70
6.26
7.65
8.45
7.25
3.72
-2.15
-8.85
-14.23
-16.78
-15.42
-11.09
-5.03
0.60
4.81
7.36
8.79
10.08
11.13
11.73
10.53
7.15
1.49
-5.10
-10.58
-13.51
-12.77
-9.18
-3.77
1.53
5.88
9.00
11.22
13.21
14.62
15.09
13.33
9.12
2.54
-4.90
-11.02
-14.29
-13.63
-9.98
-4.66
0.16
3.50
5.20
5.89
6.64
7.42
7.96
6.87
3.68
-1.79
-8.17
-13.36
-15.82
-14.43
-10.12
-4.17
1.23
5.07
7.11
8.01
8.85
9.63
10.15
9.02
5.76
0.15
-6.45
-11.95
-14.75
-13.69
-9.66
-3.96
1.19
4.77
6.54
7.16
7.73
8.33
8.81
7.82
4.87
-0.24
-6.22
-11.01
-13.08
-11.44
-7.16
-1.76
2.46
4.50
4.39
3.17
2.38
2.35
2.99
2.79
0.94
-3.10
-8.24
-12.45
-14.13
-12.12
-7.45
-1.64
2.90
5.08
4.87
3.43
2.46
2.47
3.48
3.98
3.08
0.06
-4.21
-7.92
-9.60
-8.09
-4.19
0.86
4.92
7.06
7.11
5.98
5.07
4.77
5.17
5.00
3.61
0.44
-3.62
-6.92
-8.11
-6.24
-2.28
2.40
5.57
6.35
4.73
1.88
-0.50
-1.79
-1.75
-1.70
-2.36
-4.51
-7.44
-9.68
-10.09
-7.77
-3.70
0.90
4.00
4.86
3.54
1.19
-0.57
-1.17
-0.42
0.42
0.59
-0.74
-2.96
-4.71
-4.85
-2.50
1.40
5.61
8.04
7.95
5.38
1.63
-1.47
-3.08
-2.73
-1.61
-0.50
-0.43
-1.09
-1.52
-0.92
1.35
4.36
7.06
7.71
5.91
1.94
-2.79
-6.47
-8.27
-7.74
-6.03
-3.95
-2.64
-2.03
-1.41
-0.15
2.36
5.23
7.54
7.65
5.25
0.69
-4.51
-8.42
-10.12
-9.11
-6.62
-3.58
-1.31
0.12
1.31
2.86
5.36
8.00
9.92
9.54
6.66
1.54
-4.30
-8.95
-11.43
-11.08
-8.86
-5.53
-2.42
0.19
2.50
4.75
7.38
9.62
10.92
9.98
6.76
1.54
-4.21
-8.64
-10.74
-9.80
-6.86
-2.86
0.64
3.20
4.98
6.41
8.17
9.74
10.65
9.57
6.36
1.16
-4.70
-9.45
-12.07
-11.71
-9.16
-5.10
-0.94
2.84
6.17
9.09
11.92
13.89
14.46
12.44
7.90
1.25
-5.84
-11.35
-14.06
-13.19
-9.78
-4.95
-0.53
2.81
5.05
6.62
8.31
9.77
10.68
9.74
6.72
1.63
-4.27
-9.17
-11.91
-11.54
-8.85
-4.62
-0.43
3.13
5.98
8.36
10.76
12.57
13.26
11.50
7.16
0.51
-6.81
-12.66
-15.62
-14.77
-11.10
-5.81
-0.85
2.93
5.43
7.07
8.67
9.97
10.64
9.40
6.00
0.45
-5.89
-11.11
-13.90
-13.30
-10.12
-5.32
-0.63
3.26
6.20
8.50
10.69
12.23
12.57
10.37
5.45
-1.91
-9.99
-16.43
-19.60
-18.38
-13.76
-7.10
-0.69
4.30
7.52
9.40
10.87
11.83
12.06
10.28
6.22
-0.10
-7.16
-12.80
-15.49
-14.22
-10.00
-4.16
1.15
4.97
7.14
8.29
9.40
10.36
10.90
9.61
6.06
0.13
-6.74
-12.40
-15.23
-14.09
-9.95
-4.15
1.01
4.48
6.03
6.40
6.80
7.38
8.00
7.23
4.48
-0.58
-6.73
-11.89
-14.43
-13.14
-8.88
-2.97
2.33
5.92
7.58
8.03
8.47
9.04
9.56
8.62
5.61
0.23
-6.23
-11.67
-14.42
-13.32
-9.28
-3.71
1.05
3.93
4.73
4.32
4.08
4.31
4.94
4.53
2.39
-1.98
-7.42
-11.92
-13.86
-12.04
-7.35
-1.14
4.30
7.92
9.54
9.95
10.36
10.84
11.13
9.73
6.04
-0.15
-7.37
-13.32
-16.18
-14.73
-9.95
-3.44
2.26
5.87
7.10
6.83
6.54
6.63
7.10
6.53
4.18
-0.47
-6.28
-11.19
-13.48
-11.90
-7.35
-1.25
4.00
7.25
8.26
7.88
7.47
7.32
7.35
6.19
3.24
-1.83
-7.74
-12.39
-14.17
-12.04
-7.14
-1.11
3.51
5.61
5.10
3.17
1.57
0.97
1.53
1.82
0.96
-1.85
-5.77
-9.08
-10.31
-8.31
-3.97
1.41
5.62
7.78
7.86
6.94
6.44
6.60
7.20
6.60
3.99
-1.11
-7.42
-12.75
-15.26
-13.67
-8.93
-2.57
2.82
5.92
6.39
5.16
3.81
3.01
3.07
2.86
1.76
-0.87
-4.24
-6.83
-7.46
-5.25
-1.18
3.52
6.79
7.89
6.89
4.90
3.44
2.94
3.45
3.57
2.53
-0.33
-4.17
-7.35
-8.52
-6.72
-2.94
1.46
4.30
4.71
2.77
-0.23
-2.48
-3.29
-2.44
-1.38
-1.06
-2.46
-4.99
-7.20
-7.78
-5.68
-1.76
2.76
5.81
6.58
5.09
2.53
0.52
-0.36
0.06
0.48
0.14
-1.72
-4.43
-6.57
-6.96
-4.69
-0.68
3.86
6.84
7.44
5.64
2.61
0.06
-1.26
-1.01
-0.38
-0.17
-1.31
-3.31
-4.96
-5.21
-3.22
0.11
3.66
5.51
5.08
2.51
-0.89
-3.41
-4.38
-3.58
-2.36
-1.59
-2.25
-3.87
-5.22
-5.22
-2.97
0.67
4.56
6.76
6.61
4.14
0.61
-2.27
-3.71
-3.26
-2.02
-0.68
-0.22
-0.39
-0.35
0.57
2.93
5.80
8.25
8.66
6.71
2.70
-1.99
-5.60
-7.32
-6.69
-4.86
-2.65
-1.24
-0.62
-0.12
0.89
3.07
5.62
7.71
7.75
5.42
1.03
-3.93
-7.53
-8.80
-7.26
-4.18
-0.62
2.03
3.61
4.71
5.87
7.67
9.22
9.65
7.53
2.93
-3.31
-9.26
-12.84
-13.29
-10.60
-6.49
-2.28
0.66
2.42
3.79
5.42
7.80
9.92
10.82
9.08
4.81
-1.19
-7.07
-10.86
-11.78
-9.70
-6.15
-2.31
0.40
1.98
3.10
4.39
6.44
8.37
9.33
7.84
3.88
-1.92
-7.79
-11.68
-12.71
-10.56
-6.65
-2.19
1.27
3.50
4.95
6.23
8.08
9.88
10.99
9.95
6.53
0.98
-5.22
-10.14
-12.66
-12.07
-9.29
-5.21
-1.28
2.05
4.86
7.34
9.89
11.77
12.40
10.56
6.33
0.19
-6.26
-11.09
-13.37
-12.60
-9.98
-6.56
-3.82
-1.98
-0.55
1.11
3.77
6.75
9.25
9.63
7.45
2.79
-2.90
-7.66
-10.30
-9.95
-7.47
-3.63
0.13
3.41
6.31
9.00
11.85
14.06
14.97
13.32
9.15
2.91
-3.79
-8.99
-11.64
-11.01
-8.08
-3.70
0.63
4.46
7.78
10.70
13.58
15.70
16.57
15.09
11.40
5.91
0.08
-4.33
-6.43
-5.51
-2.48
1.97
6.45
10.50
14.08
17.19
20.17
22.27
23.00
21.08
16.34
8.89
0.12
-7.83
-13.29
-14.80
-12.93
-8.89
-5.12
-3.10
-3.20
-4.65
-5.70
-5.71
-4.62
-4.09
-5.22
-8.83
-14.11
-19.38
-23.53
-25.82
-27.33
-28.86
-31.32
-33.88
-34.91
-32.93
-27.21
-19.24
-11.17
-5.88
-4.43
-6.69
-10.69
-13.93
-15.04
-13.39
-10.24
-6.59
-3.63
-1.10
1.78
5.55
10.35
14.75
17.40
16.65
12.60
6.07
-0.79
-5.75
-7.74
-6.31
-2.80
1.69
5.69
8.99
11.93
14.86
18.08
20.57
21.41
19.18
13.97
6.41
-1.58
-7.88
-11.33
-11.23
-8.56
-4.08
0.89
6.10
11.54
17.04
22.31
25.83
26.45
22.85
15.54
5.81
-3.75
-10.40
-12.75
-10.28
-4.57
2.69
9.34
14.51
18.16
20.64
22.61
23.53
22.92
19.49
13.21
4.49
-4.78
-12.14
-15.92
-15.00
-10.41
-3.68
2.73
7.38
9.79
10.35
10.25
9.76
9.02
6.95
3.12
-2.73
-9.44
-15.07
-18.12
-17.53
-14.35
-10.11
-7.20
-6.55
-7.71
-9.16
-8.91
-6.65
-3.14
-0.91
-1.61
-6.05
-12.74
-19.00
-22.77
-22.83
-20.36
-16.84
-14.03
-11.97
-9.70
-6.17
-0.85
4.85
9.23
10.23
7.76
2.86
-2.05
-4.60
-3.93
-0.09
5.12
10.46
14.60
17.67
20.29
22.95
25.97
28.26
28.86
26.21
20.25
11.49
1.96
-5.76
-9.91
-9.39
-5.34
0.61
5.99
9.57
11.21
11.63
12.10
12.61
12.75
10.78
5.83
-2.42
-12.40
-21.31
-26.71
-26.71
-22.00
-14.37
-7.03
-2.19
-0.71
-2.02
-4.24
-6.31
-7.47
-8.46
-9.50
-10.78
-11.45
-10.48
-8.01
-4.79
-3.07
-4.15
-8.64
-14.94
-20.45
-22.64
-20.00
-13.53
-5.38
0.95
3.15
0.03
-7.15
-15.52
-22.13
-24.43
-22.25
-16.41
-9.08
-1.39
6.15
13.26
19.59
23.32
23.02
17.65
8.83
-0.40
-6.09
-5.48
1.24
12.01
22.91
31.14
34.97
35.13
33.47
31.92
31.91
32.97
34.00
32.73
27.96
19.22
8.02
-2.89
-11.01
-14.39
-13.48
-9.65
-5.48
-2.47
-1.04
-0.60
0.05
0.90
1.56
0.38
-3.35
-9.75
-17.18
-23.08
-25.55
-23.43
-17.93
-10.84
-4.80
-1.01
0.49
0.73
1.25
2.33
3.74
3.86
1.81
-2.93
-9.15
-14.70
-17.78
-16.96
-12.94
-6.92
-1.13
3.27
5.90
7.26
8.36
9.20
9.64
8.39
5.07
-0.42
-6.70
-11.70
-13.97
-12.47
-8.18
-2.41
2.71
6.27
8.11
8.87
9.59
10.21
10.46
8.93
5.12
-1.13
-8.42
-14.51
-17.68
-16.64
-12.28
-6.00
-0.22
3.85
5.91
6.63
7.23
7.84
8.30
7.18
3.97
-1.54
-7.91
-13.00
-15.22
-13.56
-9.10
-3.29
1.64
4.79
6.16
6.60
7.26
8.11
8.79
7.77
4.49
-1.18
-7.76
-13.00
-15.24
-13.41
-8.60
-2.33
3.01
6.35
7.56
7.49
7.51
7.82
8.28
7.45
4.69
-0.37
-6.52
-11.74
-14.40
-13.29
-9.18
-3.22
2.46
6.88
9.75
11.55
13.14
14.28
14.62
12.76
8.40
1.65
-5.79
-11.51
-13.79
-11.62
-6.23
0.61
6.29
9.54
10.16
9.14
8.07
7.47
7.48
6.74
4.47
0.01
-5.69
-10.74
-13.49
-12.61
-8.80
-3.27
1.73
5.05
6.41
6.53
6.68
7.07
7.61
6.84
4.10
-1.01
-7.28
-12.59
-15.21
-13.89
-9.53
-3.56
1.59
4.71
5.54
4.94
4.37
4.22
4.53
3.90
1.60
-2.87
-8.40
-12.98
-14.95
-13.06
-8.22
-1.85
3.66
7.12
8.31
8.08
7.81
7.79
7.93
6.77
3.62
-1.90
-8.47
-13.88
-16.33
-14.57
-9.60
-3.01
2.65
6.11
7.18
6.81
6.51
6.65
7.14
6.45
3.81
-1.24
-7.44
-12.60
-14.91
-13.10
-8.12
-1.48
4.32
8.03
9.39
9.24
8.96
8.86
8.83
7.42
3.96
-1.91
-8.84
-14.58
-17.33
-15.85
-11.10
-4.61
1.11
4.85
6.36
6.48
6.55
6.86
7.28
6.41
3.59
-1.49
-7.54
-12.42
-14.47
-12.53
-7.60
-1.12
4.52
8.23
9.81
10.09
10.37
10.80
11.20
10.12
6.94
1.38
-5.21
-10.68
-13.35
-12.08
-7.84
-2.09
2.86
5.92
6.92
6.70
6.61
6.89
7.45
6.88
4.51
-0.09
-5.82
-10.73
-13.28
-12.28
-8.51
-3.15
1.69
5.04
6.70
7.29
7.89
8.50
8.88
7.61
4.17
-1.65
-8.44
-14.00
-16.63
-15.15
-10.54
-4.29
1.15
4.62
5.89
5.80
5.73
5.97
6.45
5.74
3.21
-1.54
-7.29
-12.01
-14.07
-12.29
-7.57
-1.23
4.47
8.44
10.47
11.22
11.80
12.18
12.10
10.11
5.73
-1.14
-8.93
-15.30
-18.46
-17.23
-12.64
-6.21
-0.42
3.56
5.45
6.01
6.49
7.04
7.53
6.54
3.47
-1.98
-8.52
-14.05
-16.93
-15.97
-12.00
-6.30
-1.09
2.52
4.23
4.59
4.69
4.59
4.17
2.13
-2.01
-8.56
-16.27
-23.10
-27.37
-27.72
-24.76
-19.61
-14.47
-10.60
-8.68
-8.51
-9.28
-10.88
-13.15
-16.80
-21.78
-28.03
-34.37
-39.40
-42.16
-42.20
-40.36
-37.53
-34.66
-31.28
-25.91
-16.47
-1.52
18.14
39.60
58.07
69.40
71.22
64.59
53.19
41.55
33.39
29.86
30.32
32.76
35.79
38.78
41.92
45.49
48.96
51.40
51.52
48.81
43.36
36.35
29.18
23.06
18.52
15.26
12.52
9.43
5.57
1.01
-3.59
-7.46
-10.00
-11.10
-11.16
-10.84
-10.79
-11.35
-12.43
-13.55
-14.18
-13.93
-12.80
-11.18
-9.66
-8.76
-8.67
-9.16
-9.63
-9.43
-8.16
-5.91
-3.29
-1.12
-0.10
-0.42
-1.65
-2.83
-2.93
-1.35
1.71
5.33
8.21
9.31
8.36
5.99
3.63
2.58
3.58
6.26
9.31
11.08
10.01
4.81
-5.50
-21.04
-40.53
-60.59
-76.12
-81.77
-74.23
-54.20
-26.25
1.73
22.66
33.00
33.57
28.24
21.34
15.61
11.42
7.85
4.02
0.22
-2.39
-2.73
-0.64
2.88
6.26
7.89
7.11
4.28
0.62
-2.41
-3.77
-3.16
-1.08
1.44
3.29
3.69
2.38
-0.26
-3.44
-6.20
-7.75
-7.71
-6.24
-4.07
-2.27
-1.88
-3.49
-6.96
-11.35
-15.25
-17.37
-17.11
-14.91
-12.18
-10.57
-11.45
-15.13
-20.75
-26.57
-30.51
-30.40
-24.34
-11.06
9.17
33.61
56.91
72.17
73.38
58.27
29.87
-4.15
-34.55
-54.07
-60.19
-55.13
-43.64
-30.21
-17.24
-5.23
6.05
16.21
24.01
28.04
27.81
24.25
19.28
15.21
13.52
14.36
16.72
18.95
19.61
18.14
15.00
11.34
8.48
7.24
7.67
9.15
10.71
11.55
11.33
10.23
8.80
7.63
7.07
7.18
7.79
8.66
9.63
10.66
11.65
12.50
13.02
13.03
12.56
11.97
11.84
12.78
15.03
18.16
21.10
22.53
21.37
17.38
11.41
5.10
0.14
-2.49
-3.19
-3.41
-5.06
-9.41
-16.31
-23.96
-29.59
-30.93
-27.00
-19.35
-11.22
-6.40
-7.71
-16.54
-32.68
-54.51
-78.82
-100.47
-112.94
-110.07
-89.20
-53.64
-12.85
20.75
36.88
32.12
11.44
-14.45
-34.49
-41.96
-37.04
-25.02
-11.99
-1.22
7.54
16.19
25.76
35.13
41.70
43.01
38.62
30.53
22.09
16.61
15.65
18.63
23.22
26.64
26.79
23.31
17.49
11.56
7.63
6.65
8.22
10.91
13.01
13.29
11.51
8.37
5.10
2.83
2.07
2.67
3.91
4.98
5.28
4.65
3.35
1.88
0.71
0.10
0.04
0.33
0.73
1.01
1.08
0.92
0.65
0.34
0.09
-0.02
0.03
0.22
0.52
0.81
1.01
1.03
0.91
0.75
0.75
1.02
1.63
2.44
3.20
3.64
3.61
3.16
2.59
2.33
2.74
3.91
5.56
7.14
8.05
7.94
6.91
5.56
4.74
5.12
6.89
9.59
12.26
13.86
13.82
12.24
10.03
8.42
8.19
9.50
11.55
13.04
12.61
9.20
2.01
-9.25
-24.15
-40.96
-56.39
-66.12
-66.43
-56.01
-36.73
-14.30
5.06
16.93
20.35
17.59
12.40
7.83
4.93
3.10
1.19
-1.15
-3.22
-3.93
-2.67
0.15
3.29
5.37
5.45
3.62
0.88
-1.48
-2.43
-1.68
0.32
2.55
4.02
4.16
3.02
1.24
-0.35
-1.10
-0.80
0.26
1.51
2.37
2.53
2.00
1.11
0.29
-0.14
-0.08
0.37
0.91
1.32
1.42
1.24
0.90
0.57
0.36
0.31
0.40
0.55
0.69
0.79
0.83
0.85
0.86
0.88
0.91
0.93
0.96
1.00
1.03
1.07
1.10
1.14
1.17
1.21
1.26
1.30
1.35
1.40
1.44
1.50
1.55
1.61
1.67
1.73
1.80
1.87
1.94
2.02
2.10
2.18
2.27
2.37
2.46
2.57
2.67
2.79
2.91
3.04
3.18
3.33
3.48
3.64
3.82
4.00
4.20
4.40
4.61
4.83
5.06
5.28
5.50
5.72
5.93
6.13
6.31
6.48
6.63
6.78
6.91
7.03
7.15
7.27
7.39
7.51
7.64
7.77
7.89
8.02
8.15
8.26
8.36
8.42
8.45
8.45
8.43
8.41
8.40
8.39
8.34
8.19
7.89
7.38
6.65
5.71
4.60
3.33
1.90
0.24
-1.72
-4.07
-6.88
-10.14
-13.81
-17.81
-22.08
-26.65
-31.63
-37.20
-43.53
-50.77
-58.87
-67.69
-77.01
-86.66
-96.60
-106.97
-118.05
-129.92
-142.42
-155.00
-166.63
-176.14
-182.30
-184.31
-181.77
-174.86
-163.87
-149.00
-130.27
-107.45
-80.48
-49.64
-16.01
18.78
52.59
83.60
110.68
133.60
153.31
171.06
188.56
206.73
225.97
245.48
263.31
276.57
281.54
275.21
255.86
224.67
185.30
143.28
104.05
71.14
45.67
26.04
10.06
-4.25
-17.23
-28.10
-35.79
-39.69
-40.61
-39.89
-39.51
-40.36
-42.82
-45.83
-47.65
-46.72
-41.91
-34.01
-24.75
-17.11
-12.90
-12.65
-15.28
-18.89
-22.84
-27.09
-32.88
-40.09
-47.48
-51.93
-50.63
-43.00
-30.92
-19.09
-11.52
-10.59
-14.93
-21.03
-24.93
-24.22
-19.56
-13.13
-8.23
-6.33
-7.63
-10.51
-12.97
-13.94
-13.18
-11.70
-10.00
-8.67
-6.98
-4.30
-0.08
5.96
13.29
21.53
29.84
37.91
44.84
50.35
54.22
56.09
55.85
52.45
45.53
34.99
22.67
11.37
4.13
2.63
5.58
9.84
10.95
6.47
-3.53
-15.72
-25.63
-30.08
-28.17
-22.15
-14.87
-9.21
-5.96
-4.78
-4.81
-5.51
-7.33
-10.74
-16.04
-21.95
-26.90
-28.87
-26.98
-22.20
-16.35
-12.12
-10.60
-11.61
-12.97
-12.29
-8.08
-0.48
8.15
15.08
17.43
14.27
6.12
-4.56
-14.73
-21.90
-24.40
-22.90
-19.04
-15.66
-14.53
-16.07
-18.84
-20.28
-18.93
-14.59
-9.42
-5.45
-3.98
-4.00
-3.13
0.44
7.06
14.18
18.64
17.59
11.20
2.11
-5.52
-8.14
-5.21
1.58
8.43
12.63
13.13
11.65
10.98
12.89
17.50
22.26
24.48
22.10
15.98
8.75
3.70
3.02
6.02
10.56
13.33
12.79
9.03
4.17
0.56
-0.94
-0.97
-2.19
-6.74
-15.96
-28.70
-42.33
-53.60
-59.81
-60.36
-55.99
-49.17
-42.11
-36.58
-32.78
-29.82
-26.57
-22.11
-16.90
-11.94
-8.73
-7.79
-8.67
-10.06
-10.54
-9.65
-7.71
-5.89
-4.79
-4.30
-3.13
0.49
7.87
19.59
35.00
53.23
73.05
93.58
113.91
133.00
149.65
162.32
170.01
172.28
169.80
163.70
155.26
145.33
133.87
120.26
103.37
81.58
52.88
16.33
-26.92
-72.55
-113.08
-139.99
-146.51
-131.23
-98.93
-59.19
-22.94
1.06
8.12
-2.11
-27.14
-62.91
-104.62
-146.54
-182.07
-204.66
-209.05
-193.90
-162.39
-121.43
-79.35
-43.58
-18.67
-6.07
-4.61
-11.26
-22.97
-36.99
-51.77
-66.81
-82.19
-98.14
-114.20
-129.46
-141.97
-149.89
-151.87
-147.40
-137.26
-122.90
-106.52
-89.49
-72.64
-55.43
-36.89
-15.79
8.97
37.68
70.00
104.02
136.69
163.40
179.34
180.67
166.89
142.08
113.79
91.12
80.15
82.08
92.38
103.66
109.04
104.88
91.77
72.32
49.96
26.68
3.55
-18.59
-38.39
-53.38
-61.53
-61.23
-53.57
-41.28
-28.64
-19.26
-14.20
-11.32
-5.42
8.05
31.08
60.24
88.96
110.11
120.69
123.31
123.70
127.76
136.38
146.09
150.47
145.37
130.98
111.60
93.31
79.16
69.06
59.57
47.73
32.92
17.80
6.58
1.93
4.28
10.78
18.17
24.00
28.42
33.31
40.48
50.31
60.53
68.02
70.10
67.05
62.03
60.09
65.38
78.27
95.05
108.65
112.40
102.41
79.74
49.16
16.78
-12.24
-35.97
-54.56
-69.75
-82.88
-94.67
-105.34
-115.51
-127.07
-141.90
-161.07
-183.02
-204.03
-219.26
-225.44
-222.69
-214.68
-207.05
-204.43
-208.12
-215.76
-222.69
-224.27
-217.73
-202.78
-180.80
-153.70
-122.94
-89.60
-54.83
-20.17
12.44
41.21
64.75
82.76
95.81
105.01
111.57
116.23
119.26
120.40
119.32
115.87
110.39
103.64
96.57
89.99
84.33
79.52
75.17
70.79
66.04
60.93
55.74
50.92
46.88
43.77
41.55
39.93
38.58
37.23
35.80
34.39
33.20
32.48
32.35
32.84
33.75
34.84
35.86
36.69
37.36
38.02
38.81
39.70
40.45
40.47
39.00
35.30
28.85
19.50
7.56
-6.38
-21.59
-37.58
-54.18
-71.52
-89.53
-107.76
-124.88
-138.81
-147.29
-148.47
-141.71
-127.89
-109.29
-88.60
-68.28
-49.44
-31.29
-13.35
4.85
22.87
39.03
50.46
54.31
48.13
31.53
6.35
-22.87
-49.95
-68.62
-74.27
-65.64
-43.87
-14.88
13.89
35.27
44.50
40.98
28.22
12.61
0.78
-2.94
0.83
7.23
9.73
3.92
-8.96
-22.73
-29.00
-22.57
-3.96
20.26
42.16
56.53
62.98
65.01
65.98
67.13
66.00
59.76
47.12
30.04
12.91
-1.03
-10.90
-19.01
-28.38
-40.81
-55.36
-69.12
-79.06
-83.05
-80.67
-72.08
-57.12
-34.87
-4.28
34.50
78.82
122.91
159.83
182.77
187.78
173.84
143.01
99.01
45.84
-11.64
-68.09
-115.99
-147.33
-154.92
-136.02
-94.66
-41.20
10.15
46.89
62.18
57.17
39.23
18.73
4.91
2.52
11.59
27.32
42.72
50.14
43.97
22.30
-11.83
-50.56
-84.04
-103.16
-103.76
-87.27
-60.29
-30.38
-2.98
19.83
39.15
55.57
68.33
74.21
70.44
56.57
35.93
14.30
-3.60
-15.93
-25.12
-35.12
-48.93
-65.95
-81.61
-89.67
-84.85
-66.08
-36.66
-3.56
25.63
45.04
52.20
48.37
36.79
21.46
5.10
-10.79
-26.00
-40.12
-51.29
-57.00
-54.86
-44.58
-27.72
-7.91
11.18
26.63
36.85
41.56
40.57
34.43
23.60
9.29
-6.43
-20.38
-29.19
-30.44
-23.25
-9.08
9.33
28.94
47.80
65.42
82.31
98.93
113.89
124.04
125.27
114.76
92.66
62.25
28.20
-6.19
-40.49
-76.61
-115.67
-155.53
-189.75
-209.74
-208.98
-186.44
-147.57
-101.80
-58.80
-24.79
-1.49
12.25
18.79
19.87
16.53
9.03
-0.90
-9.85
-13.01
-5.90
13.21
42.06
73.60
98.40
107.12
95.06
64.17
22.97
-16.79
-44.40
-53.48
-43.51
-18.32
15.90
53.15
88.16
116.53
134.73
140.52
134.19
118.92
100.50
85.35
78.71
82.62
95.00
110.80
123.12
126.14
116.05
92.55
58.16
17.67
-23.07
-59.16
-87.18
-106.74
-119.70
-129.81
-140.52
-153.47
-167.35
-177.94
-180.79
-172.89
-154.67
-129.13
-100.62
-72.47
-46.32
-22.97
-3.17
11.12
18.22
18.22
14.52
12.92
18.48
32.44
50.26
64.13
66.57
55.63
35.58
15.50
4.65
7.29
21.87
41.35
57.83
65.97
65.49
59.76
53.04
48.14
44.27
38.96
29.11
13.54
-7.24
-31.21
-55.92
-79.56
-99.89
-115.08
-122.80
-121.95
-112.71
-97.10
-77.87
-56.83
-35.07
-12.43
9.87
29.44
42.27
45.42
39.21
27.40
16.40
11.16
13.12
18.76
22.30
18.83
7.75
-6.31
-16.53
-16.98
-6.58
11.18
30.10
45.13
54.91
61.34
67.69
74.96
81.09
81.28
71.28
49.75
19.68
-12.19
-38.51
-53.06
-53.31
-40.37
-18.94
4.62
23.84
33.32
30.68
17.29
-1.48
-18.17
-24.66
-15.19
11.52
51.29
94.93
131.05
149.05
143.38
115.51
73.09
26.34
-16.65
-52.65
-83.59
-113.17
-143.28
-171.23
-190.18
-192.24
-172.71
-133.27
-82.15
-31.56
6.68
24.77
21.22
0.59
-28.78
-57.45
-77.23
-82.57
-71.09
-43.63
-4.35
39.87
80.80
110.82
125.55
125.18
113.34
96.62
81.41
71.52
66.26
61.33
51.58
33.35
6.56
-25.04
-54.35
-73.22
-74.41
-54.89
-18.28
25.59
64.26
87.80
92.37
81.15
61.38
40.09
22.35
9.25
-1.71
-14.60
-30.79
-48.78
-64.72
-75.11
-78.14
-73.42
-62.53
-47.39
-30.97
-15.31
-0.72
14.55
32.16
51.29
67.62
75.12
69.48
50.62
23.98
-2.22
-20.55
-28.72
-30.50
-34.19
-48.12
-75.78
-113.45
-150.50
-174.50
-176.26
-154.36
-114.57
-66.98
-20.83
19.11
52.58
82.52
110.48
135.18
151.84
155.85
145.63
123.91
96.99
70.96
49.96
34.47
23.27
14.60
7.80
2.97
-0.63
-4.55
-11.60
-23.23
-38.72
-54.00
-63.56
-62.99
-51.24
-32.45
-13.38
-1.42
-0.61
-10.91
-28.10
-46.29
-60.75
-68.74
-70.83
-68.36
-62.80
-53.85
-40.22
-21.27
1.74
24.31
40.46
44.43
33.84
10.82
-17.87
-42.93
-55.56
-50.28
-27.42
7.04
42.84
69.54
79.91
72.48
51.95
26.52
4.50
-7.96
-8.62
0.13
13.61
27.58
39.95
51.06
61.68
72.18
81.62
88.55
91.54
89.81
83.57
73.05
58.09
38.24
14.88
-9.95
-32.22
-46.92
-50.19
-41.46
-24.24
-4.68
9.67
14.10
8.32
-3.96
-17.29
-26.96
-30.35
-27.47
-20.61
-13.75
-10.26
-12.83
-22.58
-38.42
-57.92
-78.63
-99.38
-119.66
-138.01
-150.38
-150.77
-133.46
-95.93
-41.39
21.49
80.67
125.06
147.98
149.03
132.89
105.67
74.81
46.15
24.99
14.19
13.97
22.48
37.27
56.16
77.02
97.28
113.42
121.55
117.90
101.54
72.92
35.20
-5.93
-43.66
-71.37
-84.85
-81.28
-63.78
-40.11
-19.19
-6.84
-3.90
-7.25
-12.39
-16.28
-18.40
-20.45
-23.95
-28.78
-33.01
-34.28
-31.48
-25.30
-17.83
-11.63
-8.64
-9.19
-12.11
-15.19
-16.47
-15.01
-11.24
-6.56
-2.65
-0.80
-1.36
-3.64
-6.29
-8.06
-8.34
-7.37
-6.03
-5.41
-6.32
-8.94
-12.73
-16.71
-19.94
-21.96
-23.00
-23.90
-25.78
-29.52
-35.40
-42.88
-50.78
-57.75
-62.88
-66.19
-68.70
-72.09
-78.05
-87.44
-99.88
-113.63
-126.53
-136.39
-142.18
-144.18
-144.06
-143.76
-144.34
-144.98
-142.69
-132.26
-107.78
-65.21
-4.62
67.91
141.08
201.45
237.63
244.94
226.96
194.09
159.80
136.93
134.18
154.02
192.31
238.58
278.55
298.09
288.19
248.75
189.49
126.62
75.62
45.77
37.35
43.42
53.94
60.47
58.29
47.02
28.46
4.61
-23.08
-53.57
-85.00
-114.51
-138.40
-153.85
-160.35
-160.39
-158.58
-159.54
-166.18
-178.35
-193.21
-206.66
-215.22
-217.38
-214.14
-208.21
-202.63
-199.07
-197.12
-194.51
-187.99
-174.74
-153.60
-125.52
-93.01
-58.92
-25.34
7.18
39.40
72.58
107.28
142.66
176.04
203.93
223.02
231.53
229.77
220.15
206.39
192.81
183.65
182.01
188.93
202.23
216.49
224.22
218.47
196.07
158.74
113.81
70.75
37.34
16.60
6.78
3.59
3.21
4.17
7.13
13.39
22.73
32.90
40.46
42.50
38.37
29.86
20.61
14.07
12.32
14.67
18.17
18.81
12.69
-2.65
-27.76
-61.25
-99.89
-138.44
-170.71
-189.92
-191.79
-176.15
-147.32
-112.98
-81.22
-57.51
-42.60
-33.26
-24.70
-13.85
-1.42
8.64
11.40
3.94
-13.08
-35.47
-57.25
-72.30
-75.97
-66.04
-42.65
-8.53
31.32
70.32
101.79
120.39
123.96
113.60
92.55
64.98
34.37
3.64
-24.91
-49.41
-68.61
-82.51
-92.46
-100.97
-110.51
-122.87
-138.32
-155.65
-172.95
-188.12
-199.80
-207.56
-212.01
-214.03
-214.26
-212.93
-209.44
-202.79
-191.75
-175.64
-154.37
-128.75
-100.23
-70.48
-40.94
-12.25
15.59
43.40
71.96
101.71
132.23
162.05
189.25
211.90
229.15
240.91
248.61
253.68
257.69
261.69
266.43
272.62
280.07
288.00
293.63
293.25
283.07
261.02
227.99
187.56
145.11
105.05
70.22
40.74
15.51
-6.47
-24.66
-36.81
-40.76
-35.44
-23.13
-8.40
2.99
6.77
1.74
-10.02
-24.27
-37.71
-48.25
-56.35
-62.55
-66.69
-66.46
-58.30
-40.09
-12.19
20.96
53.06
77.92
92.65
98.37
99.20
99.94
102.48
105.33
103.58
92.37
69.42
37.16
1.71
-30.30
-53.88
-68.78
-77.73
-85.29
-94.99
-108.50
-125.43
-144.33
-164.10
-183.05
-199.52
-210.28
-211.58
-199.74
-173.01
-133.07
-84.91
-35.86
7.12
39.20
59.47
70.28
75.58
78.79
81.09
81.47
77.84
68.95
55.23
38.87
22.45
7.50
-5.48
-17.12
-27.55
-36.07
-41.03
-41.35
-37.21
-30.53
-24.65
-22.48
-25.66
-33.44
-43.49
-52.77
-59.20
-62.71
-64.96
-68.94
-77.80
-94.28
-119.94
-154.54
-195.30
-236.73
-271.60
-292.69
-295.36
-279.18
-248.30
-209.61
-170.11
-134.84
-105.59
-82.97
-67.03
-58.05
-55.97
-59.56
-65.91
-71.25
-71.14
-61.57
-40.59
-9.11
28.43
64.86
92.97
108.01
110.43
105.35
100.08
99.57
103.92
108.27
105.71
91.64
66.08
34.37
4.46
-15.93
-21.97
-12.50
10.50
42.85
79.46
114.99
145.29
167.68
181.65
188.13
189.41
188.66
189.23
194.60
207.10
227.18
252.60
278.73
299.84
310.75
308.56
292.56
264.25
226.09
181.05
131.86
81.16
31.62
-14.42
-54.60
-87.51
-112.36
-129.00
-137.66
-138.89
-133.50
-122.71
-108.21
-91.33
-73.23
-54.27
-35.08
-16.32
0.96
14.89
23.50
25.05
19.25
7.08
-9.51
-28.35
-48.04
-68.18
-89.60
-113.52
-141.07
-172.95
-209.39
-249.82
-291.88
-331.07
-360.95
-375.29
-370.83
-349.48
-318.04
-285.49
-259.10
-240.11
-224.88
-206.81
-180.02
-142.31
-95.57
-44.22
7.54
57.12
103.68
146.52
184.25
214.71
235.72
246.15
246.66
239.77
228.75
216.67
205.32
195.02
184.92
173.74
160.59
145.54
129.58
114.19
100.72
89.73
80.95
73.54
66.44
58.89
50.74
42.37
34.47
27.66
22.20
17.94
14.47
11.30
8.09
4.73
1.37
-1.73
-4.36
-6.41
-7.96
-9.11
-10.01
-10.78
-11.46
-12.03
-12.48
-12.78
-12.94
-12.97
-12.88
-12.68
-12.40
-12.03
-11.62
-11.16
-10.68
-10.10
-9.49
-8.88
-8.30
-7.74
-7.22
-6.73
-6.27
-5.84
-5.44
-5.09
-4.76
-4.47
-4.20
-3.94
-3.70
-3.48
-3.27
-3.08
-2.91
-2.76
-2.62
-2.49
-2.36
-2.25
-2.14
-2.03
-1.94
-1.85
-1.77
-1.71
-1.64
-1.58
-1.52
-1.46
-1.40
-1.36
-1.31
-1.27
-1.23
-1.19
-1.16
-1.12
-1.09
-1.06
-1.03
-1.00
-0.97
-0.95
-0.93
-0.90
-0.88
-0.86
-0.84
-0.81
-0.80
-0.78
-0.76
-0.74
-0.72
-0.71
-0.69
-0.67
-0.66
-0.65
-0.63
-0.62
-0.60
-0.59
-0.58
-0.57
-0.57
-0.55
-0.53
-0.49
-0.44
-0.43
-0.46
-0.56
-0.73
-0.91
-1.08
-1.18
-1.19
-1.14
-1.07
-1.06
-1.12
-1.25
-1.42
-1.54
-1.56
-1.47
-1.29
-1.14
-1.11
-1.29
-1.64
-2.07
-2.42
-2.52
-2.35
-2.01
-1.75
-1.84
-2.45
-3.53
-4.80
-5.86
-6.33
-6.11
-5.45
-4.88
-5.01
-6.16
-8.24
-10.67
-12.64
-13.48
-12.93
-11.50
-10.11
-9.84
-11.30
-14.35
-18.11
-21.25
-22.81
-22.43
-20.58
-18.34
-16.85
-16.90
-18.97
-23.29
-29.53
-36.32
-40.77
-39.14
-28.10
-6.78
22.26
53.54
80.61
98.76
106.76
106.69
102.13
96.24
89.75
81.95
71.92
59.57
46.17
33.48
22.78
13.85
5.98
-2.18
-11.60
-22.00
-32.12
-40.15
-44.50
-44.57
-40.85
-34.96
-28.94
-24.47
-22.10
-21.04
-19.23
-14.17
-4.27
10.04
25.91
38.60
43.53
37.98
22.20
-1.06
-27.46
-52.19
-70.79
-79.51
-75.86
-59.48
-32.87
-1.54
27.28
47.14
54.82
51.21
40.39
27.10
14.57
3.56
-6.72
-17.39
-28.37
-38.07
-43.86
-43.00
-33.93
-17.15
4.34
25.86
42.43
50.52
49.09
39.92
26.71
13.36
2.69
-4.24
-7.69
-8.39
-7.01
-4.33
-1.67
-1.01
-4.47
-13.00
-25.43
-38.30
-47.14
-48.42
-41.44
-28.77
-15.07
-5.00
-1.28
-3.99
-11.35
-21.40
-32.34
-43.62
-55.77
-69.26
-83.39
-96.14
-105.15
-108.87
-107.41
-102.26
-95.59
-89.19
-83.99
-80.39
-78.81
-80.04
-84.76
-92.73
-102.21
-110.35
-114.16
-111.55
-102.13
-87.04
-68.37
-48.24
-28.30
-9.20
9.30
28.24
49.04
72.93
99.84
128.05
154.71
176.96
193.23
203.85
210.93
217.40
226.04
238.42
254.48
272.86
291.10
305.85
313.10
308.84
290.30
257.35
212.27
159.22
103.10
48.03
-4.07
-53.63
-102.45
-152.15
-201.79
-249.49
-292.91
-329.16
-354.97
-367.57
-365.54
-349.24
-320.94
-282.20
-236.99
-190.69
-147.21
-107.06
-68.40
-29.04
12.06
54.10
98.54
143.76
185.83
221.83
251.99
278.07
301.33
321.94
339.09
356.31
373.34
385.75
388.52
379.50
358.81
327.93
289.56
218.74
121.15
25.54
-44.49
-85.84
-106.24
-114.86
-119.33
-123.85
-131.53
-140.50
-152.62
-169.95
-193.98
-221.65
-246.86
-263.62
-268.19
-260.52
-240.20
-211.58
-182.08
-157.87
-140.57
-128.56
-119.46
-111.69
-105.02
-97.73
-89.79
-82.48
-76.75
-71.86
-66.55
-60.29
-53.66
-48.02
-43.57
-40.72
-39.89
-41.01
-43.10
-45.08
-46.52
-47.80
-49.79
-52.90
-57.29
-62.72
-68.47
-73.40
-76.58
-77.76
-77.40
-76.42
-75.85
-76.45
-78.73
-82.87
-88.44
-94.13
-97.50
-95.34
-84.44
-62.87
-31.00
8.17
49.70
88.16
119.30
141.23
154.57
161.68
165.11
166.35
165.29
160.84
152.22
140.13
127.09
116.63
111.69
113.32
120.28
130.00
139.97
148.91
156.78
164.10
170.76
175.59
176.72
172.57
162.86
148.93
133.18
118.09
105.29
94.94
86.04
77.01
66.48
53.74
38.94
22.85
6.39
-9.64
-24.79
-38.91
-51.99
-64.00
-74.87
-84.41
-92.46
-98.84
-103.39
-106.04
-106.75
-105.63
-102.91
-98.93
-94.01
-88.33
-82.04
-75.22
-68.12
-61.11
-54.65
-49.06
-44.37
-40.31
-36.43
-32.37
-27.92
-23.16
-18.32
-13.67
-9.43
-5.67
-2.43
0.28
2.46
4.17
5.46
6.43
7.20
7.82
8.28
8.59
8.70
8.64
8.47
8.25
8.07
7.93
7.82
7.72
7.62
7.57
7.65
7.91
8.38
9.05
9.93
11.03
12.39
14.02
15.89
17.85
19.69
21.17
22.12
22.53
22.49
22.14
21.57
20.76
19.64
18.20
16.47
14.57
12.63
10.73
8.90
7.18
5.66
4.46
3.65
3.14
2.68
1.99
0.95
-0.19
-0.92
-0.67
0.92
3.74
7.21
10.49
12.90
14.09
14.13
13.39
12.29
11.11
9.98
8.95
8.03
7.28
6.76
6.41
6.12
5.73
5.14
4.35
3.46
2.54
1.67
0.89
0.27
-0.09
-0.13
0.12
0.45
0.59
0.30
-0.52
-1.78
-3.28
-4.78
-6.09
-7.07
-7.62
-7.67
-7.21
-6.33
-5.21
-4.10
-3.20
-2.61
-2.31
-2.16
-1.99
-1.68
-1.19
-0.57
0.07
0.65
1.20
1.81
2.62
3.67
4.89
5.99
6.75
6.94
6.59
5.86
4.99
4.17
3.50
2.95
2.49
1.98
1.22
-0.01
-1.95
-4.72
-8.22
-12.05
-15.57
-18.06
-18.91
-17.86
-15.09
-11.11
-6.71
-2.70
0.25
1.78
1.89
0.92
-0.60
-2.17
-3.50
-4.57
-5.53
-6.54
-7.55
-8.32
-8.51
-7.92
-6.67
-5.06
-3.51
-2.20
-1.10
-0.02
1.12
2.16
2.72
2.49
1.39
-0.28
-2.05
-3.48
-4.41
-5.01
-5.57
-6.30
-7.23
-8.25
-9.18
-9.92
-10.38
-10.48
-10.06
-8.91
-6.98
-4.38
-1.46
1.29
3.46
4.82
5.43
5.55
5.53
5.69
6.21
7.05
8.03
8.93
9.56
9.87
9.95
10.02
10.23
10.66
11.24
11.80
12.14
12.15
11.84
11.32
10.78
10.37
10.07
9.65
8.73
6.96
4.20
0.74
-2.80
-5.64
-7.06
-6.74
-4.79
-1.70
1.80
4.94
7.05
7.68
6.75
4.53
1.60
-1.31
-3.56
-4.83
-5.16
-4.86
-4.38
-4.01
-3.92
-4.10
-4.53
-5.15
-5.92
-6.74
-7.43
-7.76
-7.52
-6.71
-5.52
-4.35
-3.60
-3.57
-4.26
-5.48
-6.88
-8.12
-8.97
-9.34
-9.32
-9.08
-8.86
-8.81
-9.07
-9.66
-10.55
-11.64
-12.82
-13.95
-14.88
-15.55
-15.95
-16.15
-16.32
-16.63
-17.26
-18.28
-19.69
-21.36
-23.09
-24.58
-25.56
-25.83
-25.38
-24.47
-23.44
-22.69
-22.34
-22.36
-22.46
-22.32
-21.70
-20.42
-18.53
-16.18
-13.71
-11.57
-10.16
-9.67
-9.88
-10.24
-9.99
-8.57
-5.82
-2.10
1.87
5.30
7.62
8.62
8.49
7.72
6.84
6.31
6.32
6.76
7.37
7.89
8.26
8.51
8.83
9.33
9.98
10.63
11.09
11.24
11.07
10.69
10.21
9.72
9.21
8.61
7.88
7.05
6.24
5.65
5.47
5.69
6.13
6.41
6.22
5.45
4.31
3.11
2.16
1.52
1.04
0.50
-0.20
-0.92
-1.40
-1.46
-1.15
-0.76
-0.61
-0.89
-1.50
-2.21
-2.83
-3.36
-4.01
-5.03
-6.50
-8.22
-9.85
-11.00
-11.47
-11.33
-10.84
-10.35
-10.20
-10.57
-11.61
-13.30
-15.40
-17.45
-18.76
-18.52
-16.07
-11.21
-4.31
3.69
11.58
18.24
22.88
25.30
25.74
24.69
22.63
19.95
16.84
13.45
9.97
6.65
3.83
1.76
0.55
0.12
0.23
0.58
0.87
0.96
0.76
0.27
-0.44
-1.27
-2.14
-2.91
-3.49
-3.82
-3.84
-3.55
-2.96
-2.14
-1.20
-0.31
0.35
0.66
0.58
0.18
-0.43
-1.13
-1.83
-2.49
-3.04
-3.38
-3.44
-3.22
-2.79
-2.35
-2.08
-2.13
-2.57
-3.28
-4.12
-4.86
-5.30
-5.32
-4.84
-3.94
-2.81
-1.77
-1.14
-1.17
-1.88
-2.99
-4.01
-4.41
-3.79
-2.12
0.35
3.16
5.84
8.09
9.73
10.72
11.01
10.63
9.69
8.45
7.24
6.38
6.07
6.30
6.93
7.79
8.71
9.54
10.20
10.58
10.67
10.60
10.57
10.83
11.46
12.38
13.30
13.91
14.08
13.94
13.84
14.10
14.94
16.23
17.63
18.69
19.11
18.87
18.21
17.47
17.00
16.96
17.38
18.11
18.90
19.32
18.88
17.08
13.67
8.79
3.04
-2.71
-7.65
-11.38
-14.10
-16.42
-19.02
-22.22
-25.86
-29.31
-31.82
-32.87
-32.41
-30.90
-29.16
-27.98
-27.81
-28.56
-29.63
-30.17
-29.48
-27.27
-23.76
-19.48
-15.03
-10.84
-7.15
-4.06
-1.75
-0.43
-0.28
-1.26
-3.08
-5.19
-6.95
-7.81
-7.54
-6.23
-4.29
-2.32
-0.85
-0.25
-0.51
-1.36
-2.40
-3.32
-4.01
-4.54
-5.05
-5.55
-5.93
-5.99
-5.59
-4.76
-3.65
-2.53
-1.58
-0.98
-0.78
-0.92
-1.34
-1.94
-2.62
-3.37
-4.21
-5.19
-6.34
-7.64
-8.94
-10.06
-10.81
-11.16
-11.19
-11.13
-11.24
-11.67
-12.41
-13.28
-13.98
-14.30
-14.09
-13.37
-12.26
-10.98
-9.79
-9.05
-9.07
-9.98
-11.53
-13.08
-13.70
-12.62
-9.54
-4.89
0.40
5.25
8.93
11.27
12.55
13.21
13.57
13.67
13.40
12.71
11.68
10.63
9.85
9.61
9.93
10.68
11.54
12.18
12.31
11.81
10.78
9.56
8.55
8.07
8.13
8.46
8.60
8.23
7.30
6.11
5.07
4.50
4.40
4.54
4.57
4.36
4.02
3.86
4.09
4.70
5.40
5.75
5.51
4.68
3.47
2.12
0.73
-0.79
-2.54
-4.51
-6.49
-8.17
-9.34
-9.98
-10.35
-10.79
-11.52
-12.50
-13.49
-14.15
-14.35
-14.14
-13.82
-13.70
-13.94
-14.45
-14.86
-14.63
-13.28
-10.52
-6.38
-1.25
4.26
9.37
13.37
15.76
16.34
15.33
13.19
10.57
8.08
6.14
4.93
4.35
4.10
3.82
3.28
2.47
1.62
1.10
1.32
2.48
4.64
7.59
11.00
14.45
17.50
19.76
20.95
21.00
20.04
18.36
16.36
14.31
12.30
10.29
8.23
6.12
4.15
2.61
1.73
1.56
1.88
2.35
2.63
2.55
2.17
1.67
1.22
0.88
0.58
0.19
-0.29
-0.78
-1.05
-0.96
-0.59
-0.18
-0.09
-0.56
-1.56
-2.83
-4.00
-4.79
-5.13
-5.19
-5.21
-5.33
-5.50
-5.56
-5.42
-5.09
-4.76
-4.72
-5.21
-6.40
-8.28
-10.67
-13.24
-15.49
-16.84
-16.78
-15.09
-12.01
-8.21
-4.59
-1.93
-0.64
-0.58
-1.38
-2.52
-3.59
-4.37
-4.73
-4.64
-4.09
-3.12
-1.85
-0.45
0.97
2.34
3.68
5.03
6.32
7.40
8.11
8.35
8.09
7.39
6.36
5.07
3.59
2.10
0.76
-0.25
-0.82
-0.94
-0.68
-0.17
0.50
1.26
2.11
2.99
3.86
4.67
5.38
5.95
6.29
6.29
5.83
4.86
3.50
2.04
0.79
0.02
-0.22
-0.13
-0.04
-0.32
-1.17
-2.56
-4.19
-5.63
-6.49
-6.63
-6.21
-5.54
-5.01
-4.85
-5.14
-5.90
-7.07
-8.60
-10.36
-12.01
-13.02
-12.89
-11.33
-8.50
-4.96
-1.50
1.21
2.77
3.15
2.67
1.69
0.60
-0.33
-0.97
-1.25
-1.20
-0.87
-0.36
0.21
0.69
0.98
1.01
0.80
0.46
0.14
-0.02
0.05
0.32
0.71
1.11
1.39
1.44
1.21
0.74
0.19
-0.30
-0.60
-0.77
-0.93
-1.23
-1.62
-1.77
-1.29
0.07
2.16
4.40
5.99
6.36
5.42
3.62
1.67
0.14
-0.73
-1.13
-1.38
-1.76
-2.36
-3.16
-4.11
-5.20
-6.44
-7.62
-8.40
-8.29
-7.02
-4.67
-1.82
0.71
2.24
2.44
1.55
0.16
-1.03
-1.52
-1.19
-0.23
0.97
2.07
2.86
3.32
3.55
3.69
3.79
3.82
3.70
3.37
2.95
2.61
2.50
2.64
2.91
3.12
3.20
3.23
3.43
4.01
4.96
6.07
6.94
7.26
6.93
6.13
5.22
4.54
4.30
4.48
4.88
5.25
5.31
4.92
4.10
2.96
1.73
0.59
-0.32
-0.98
-1.37
-1.53
-1.44
-1.09
-0.50
0.21
0.86
1.19
1.02
0.36
-0.58
-1.45
-1.93
-1.88
-1.41
-0.83
-0.48
-0.56
-1.20
-2.38
-4.01
-5.92
-7.75
-9.02
-9.23
-8.16
-5.94
-3.20
-0.63
1.15
1.97
2.00
1.61
1.16
0.85
0.77
0.91
1.24
1.69
2.06
2.12
1.75
1.04
0.34
0.05
0.43
1.50
2.95
4.36
5.44
6.06
6.28
6.26
6.11
5.82
5.35
4.72
4.01
3.44
3.16
3.28
3.69
4.20
4.57
4.70
4.61
4.43
4.25
4.07
3.72
3.07
2.07
0.86
-0.26
-1.03
-1.34
-1.36
-1.42
-1.80
-2.56
-3.51
-4.32
-4.71
-4.55
-3.93
-3.08
-2.27
-1.72
-1.60
-2.01
-2.95
-4.27
-5.75
-7.09
-7.99
-8.26
-7.91
-7.09
-6.17
-5.52
-5.43
-5.86
-6.45
-6.67
-6.01
-4.20
-1.38
1.98
5.26
7.95
9.72
10.45
10.16
8.95
7.02
4.74
2.60
1.12
0.59
1.02
2.02
3.04
3.60
3.46
2.74
1.81
1.17
1.20
2.08
3.72
5.83
8.05
10.04
11.62
12.72
13.41
13.80
13.94
13.88
13.61
13.12
12.45
11.64
10.78
9.93
9.11
8.30
7.45
6.51
5.49
4.48
3.57
2.92
2.65
2.88
3.57
4.57
5.50
5.91
5.42
3.95
1.82
-0.41
-2.12
-2.98
-3.02
-2.57
-1.98
-1.42
-0.79
0.10
1.28
2.52
3.36
3.31
2.12
-0.21
-3.46
-7.25
-11.18
-14.76
-17.47
-18.76
-18.37
-16.41
-13.44
-10.31
-7.78
-6.22
-5.55
-5.37
-5.17
-4.58
-3.53
-2.14
-0.60
0.95
2.50
4.14
5.95
7.94
9.97
11.81
13.17
13.85
13.88
13.44
12.87
12.41
12.12
11.81
11.18
9.98
8.10
5.74
3.26
1.05
-0.62
-1.72
-2.45
-3.02
-3.59
-4.16
-4.60
-4.73
-4.52
-4.01
-3.40
-2.90
-2.66
-2.69
-2.91
-3.17
-3.36
-3.38
-3.30
-3.21
-3.32
-3.81
-4.76
-6.12
-7.67
-9.09
-9.99
-10.06
-9.18
-7.45
-5.20
-2.87
-0.87
0.56
1.42
1.82
1.92
1.84
1.57
1.10
0.49
-0.11
-0.49
-0.41
0.16
1.18
2.43
3.70
4.80
5.58
5.97
5.93
5.54
4.93
4.28
3.67
3.09
2.43
1.61
0.73
-0.01
-0.33
-0.09
0.61
1.47
2.17
2.60
2.89
3.29
3.96
4.80
5.52
5.81
5.52
4.75
3.72
2.57
1.35
-0.03
-1.65
-3.40
-5.06
-6.36
-7.10
-7.28
-7.04
-6.57
-6.07
-5.69
-5.55
-5.78
-6.48
-7.62
-8.98
-10.15
-10.69
-10.35
-9.14
-7.39
-5.57
-4.13
-3.26
-2.94
-2.98
-3.28
-3.84
-4.76
-6.09
-7.67
-9.17
-10.19
-10.55
-10.29
-9.65
-8.92
-8.28
-7.68
-6.98
-6.04
-4.79
-3.35
-1.84
-0.42
0.86
2.01
3.10
4.20
5.35
6.52
7.54
8.28
8.60
8.58
8.41
8.33
8.49
8.83
9.22
9.46
9.48
9.31
9.03
8.68
8.21
7.54
6.60
5.43
4.03
2.48
0.75
-1.16
-3.19
-5.19
-7.00
-8.49
-9.69
-10.77
-11.95
-13.36
-14.94
-16.46
-17.66
-18.32
-18.42
-18.06
-17.44
-16.71
-15.87
-14.93
-13.85
-12.71
-11.56
-10.44
-9.27
-7.81
-5.84
-3.24
-0.06
3.48
7.01
10.20
12.76
14.60
15.72
16.26
16.25
15.53
13.80
10.67
5.99
0.01
-6.58
-12.83
-17.84
-21.11
-22.58
-22.49
-21.22
-19.08
-16.35
-13.32
-10.43
-8.28
-7.54
-8.68
-11.78
-16.49
-22.23
-28.43
-34.84
-41.56
-48.86
-56.80
-65.08
-73.00
-79.86
-85.37
-89.96
-94.67
-100.67
-108.65
-118.37
-128.78
-138.42
-146.27
-152.11
-156.65
-161.14
-166.86
-174.64
-184.64
-196.54
-209.65
-223.08
-235.65
-245.87
-252.20
-253.40
-249.09
-239.89
-227.20
-212.58
-197.05
-180.72
-163.09
-143.73
-122.95
-101.97
-82.39
-65.47
-51.34
-39.01
-26.80
-13.39
1.57
17.27
32.21
45.01
55.04
62.65
68.69
73.98
78.75
82.70
85.32
86.41
86.42
86.32
87.24
89.93
94.57
100.90
108.73
118.27
130.23
145.50
164.67
187.49
212.83
238.78
263.16
283.88
299.26
308.15
309.91
304.29
291.38
271.64
246.02
216.08
184.02
152.36
123.53
99.21
79.87
64.82
52.55
41.50
30.73
20.19
10.56
2.73
-2.75
-5.95
-7.32
-7.42
-6.57
-4.88
-2.37
0.72
3.96
6.92
9.49
12.08
15.42
20.14
26.30
33.17
39.43
43.73
45.36
44.67
42.96
42.07
43.57
48.26
55.82
64.92
73.74
80.58
84.33
84.68
82.03
77.07
70.52
62.85
54.16
44.25
32.59
18.51
1.47
-18.52
-40.63
-63.23
-84.23
-101.97
-115.83
-126.43
-135.07
-142.70
-148.96
-152.01
-149.35
-139.04
-120.88
-96.68
-69.58
-42.84
-18.69
1.94
19.14
33.20
44.15
51.76
55.90
57.08
56.45
55.55
55.67
57.38
60.46
64.23
68.05
71.69
75.53
80.26
86.65
95.15
105.74
117.91
130.75
143.09
153.70
161.49
165.67
165.88
162.24
155.27
145.68
134.24
121.53
107.92
93.65
78.92
64.11
49.79
36.64
25.33
16.31
9.60
4.77
1.11
-2.22
-5.96
-10.52
-15.96
-22.05
-28.44
-35.00
-41.91
-49.81
-59.60
-72.23
-88.24
-107.58
-129.22
-151.13
-170.49
-184.09
-189.06
-183.63
-167.73
-143.05
-112.69
-80.23
-48.81
-20.42
4.36
26.02
45.58
63.92
81.41
97.77
112.24
123.94
132.17
136.70
137.75
135.95
132.12
127.09
121.54
115.92
110.43
105.05
99.56
93.64
87.01
79.54
71.33
62.77
54.36
46.67
40.12
34.89
30.87
27.69
24.79
21.61
17.68
12.87
7.37
1.70
-3.56
-8.00
-11.52
-14.42
-17.17
-20.23
-23.84
-27.93
-32.20
-36.28
-39.97
-43.36
-46.92
-51.26
-56.98
-64.34
-73.13
-82.55
-91.53
-98.96
-104.19
-107.15
-108.49
-109.28
-110.86
-114.37
-120.40
-128.64
-137.66
-145.08
-148.09
-144.24
-132.25
-112.49
-86.96
-58.67
-30.91
-6.43
13.00
26.71
34.98
38.77
39.37
38.22
36.59
35.46
35.50
37.04
40.17
44.79
50.53
56.82
62.93
68.18
72.04
74.34
75.19
74.80
73.34
70.84
67.29
62.77
57.58
52.26
47.41
43.49
40.61
38.59
37.04
35.55
33.88
32.00
29.99
27.95
25.86
23.61
21.06
18.15
14.96
11.72
8.60
5.64
2.64
-0.68
-4.54
-8.92
-13.54
-17.96
-21.88
-25.24
-28.34
-31.64
-35.55
-40.29
-45.73
-51.48
-57.09
-62.15
-66.48
-70.19
-73.72
-77.71
-82.96
-90.04
-98.96
-108.85
-117.89
-123.64
-123.69
-116.49
-101.88
-81.24
-57.12
-32.49
-9.97
8.74
22.99
32.94
39.32
43.03
44.95
45.90
46.56
47.52
49.18
51.71
55.05
58.87
62.72
66.19
68.98
71.00
72.33
73.13
73.44
73.17
72.03
69.62
65.64
60.04
53.11
45.42
37.76
30.82
25.06
20.57
17.05
13.99
10.91
7.50
3.78
0.03
-3.40
-6.17
-8.17
-9.57
-10.72
-12.07
-14.03
-16.78
-20.24
-24.08
-27.83
-31.15
-33.95
-36.48
-39.22
-42.63
-46.97
-52.07
-57.49
-62.68
-67.28
-71.17
-74.53
-77.80
-81.59
-86.63
-93.60
-102.71
-113.26
-123.36
-130.16
-130.59
-122.48
-105.49
-81.31
-53.15
-24.68
1.11
22.48
38.96
50.81
58.58
62.82
64.14
63.33
61.43
59.62
58.92
59.94
62.72
66.85
71.61
76.28
80.31
83.43
85.59
86.87
87.28
86.75
85.09
82.18
78.03
72.83
66.88
60.52
54.01
47.58
41.39
35.55
30.15
25.16
20.38
15.49
10.10
3.89
-3.23
-11.14
-19.52
-27.96
-36.11
-43.81
-51.17
-58.52
-66.30
-74.86
-84.25
-94.11
-103.66
-111.93
-117.97
-121.14
-121.29
-118.74
-114.15
-108.35
-102.09
-95.98
-90.53
-86.22
-83.55
-83.08
-85.27
-90.22
-97.31
-105.12
-111.43
-113.65
-109.53
-97.89
-79.09
-54.96
-28.31
-2.06
21.52
41.17
56.60
68.12
76.24
81.45
84.24
85.15
84.77
83.72
82.50
81.58
81.41
82.54
85.49
90.50
97.41
105.76
115.13
125.49
137.09
150.13
164.21
177.99
189.61
197.44
200.91
200.86
199.08
197.38
196.61
196.20
194.45
189.30
179.16
163.48
142.93
119.09
93.94
69.32
46.52
26.13
8.21
-7.37
-20.68
-31.72
-40.47
-47.16
-52.31
-56.60
-60.59
-64.53
-68.32
-71.72
-74.66
-77.33
-80.23
-83.87
-88.59
-94.38
-100.97
-107.97
-115.07
-122.27
-129.83
-138.17
-147.55
-157.68
-167.47
-175.14
-178.60
-176.13
-167.04
-151.97
-132.78
-111.94
-91.84
-74.24
-60.00
-49.20
-41.42
-36.08
-32.58
-30.33
-28.75
-27.17
-24.95
-21.52
-16.62
-10.36
-3.21
4.18
11.17
17.28
22.34
26.36
29.48
31.81
33.28
33.74
32.98
30.93
27.79
24.02
20.22
16.99
14.62
13.08
12.04
11.10
10.00
8.75
7.54
6.58
5.96
5.56
5.09
4.23
2.74
0.52
-2.42
-5.95
-9.82
-13.81
-17.76
-21.68
-25.74
-30.18
-35.23
-40.90
-46.98
-53.08
-58.79
-63.92
-68.62
-73.32
-78.69
-85.34
-93.59
-103.18
-113.08
-121.53
-126.42
-125.84
-118.68
-105.03
-86.27
-64.64
-42.69
-22.60
-5.79
7.20
16.52
22.76
26.56
28.48
28.98
28.43
27.27
26.13
25.72
26.71
29.49
34.01
39.78
46.01
51.86
56.69
60.13
62.06
62.51
61.54
59.23
55.68
51.11
45.85
40.35
35.08
30.39
26.40
23.01
19.98
17.03
13.97
10.74
7.37
3.93
0.50
-2.89
-6.20
-9.46
-12.71
-16.11
-19.85
-24.10
-28.99
-34.47
-40.32
-46.27
-52.02
-57.42
-62.51
-67.59
-73.13
-79.74
-87.85
-97.43
-107.74
-117.22
-123.69
-124.93
-119.31
-106.37
-87.09
-63.62
-38.77
-15.19
5.13
21.23
33.02
41.00
45.81
48.00
48.02
46.41
43.93
41.58
40.42
41.20
44.14
48.79
54.32
59.82
64.67
68.60
71.60
73.67
74.67
74.35
72.51
69.14
64.46
58.92
53.03
47.23
41.83
36.93
32.56
28.66
25.12
21.82
18.64
15.41
12.05
8.50
4.82
1.11
-2.54
-6.15
-9.87
-13.98
-18.74
-24.24
-30.41
-36.92
-43.44
-49.65
-55.34
-60.47
-65.18
-69.83
-74.96
-81.32
-89.50
-99.67
-111.16
-122.30
-130.67
-133.63
-129.23
-116.82
-97.32
-72.98
-46.71
-21.31
1.11
19.37
33.11
42.55
48.24
50.93
51.52
50.94
50.11
49.78
50.47
52.46
55.82
60.42
65.90
71.74
77.31
82.01
85.42
87.33
87.68
86.51
83.83
79.74
74.46
68.44
62.29
56.60
51.72
47.64
43.98
40.29
36.27
31.96
27.66
23.76
20.53
17.88
15.49
12.83
9.50
5.37
0.56
-4.62
-9.90
-15.18
-20.60
-26.35
-32.58
-39.26
-46.18
-53.04
-59.55
-65.58
-71.19
-76.67
-82.40
-88.86
-96.55
-105.76
-116.29
-127.17
-136.47
-141.67
-140.24
-130.52
-112.45
-87.71
-59.31
-30.70
-4.78
16.70
33.22
45.11
53.05
57.67
59.46
58.97
56.98
54.54
52.86
52.91
55.18
59.53
65.27
71.43
77.16
81.89
85.35
87.56
88.52
88.18
86.41
83.14
78.50
72.87
66.78
60.79
55.39
50.79
47.01
43.88
41.10
38.31
35.26
31.88
28.34
24.97
22.09
19.82
17.88
15.70
12.71
8.59
3.47
-2.10
-7.51
-12.34
-16.63
-20.76
-25.31
-30.68
-36.94
-43.82
-50.77
-57.24
-62.87
-67.56
-71.63
-75.74
-80.82
-87.78
-97.07
-108.26
-119.81
-129.17
-133.41
-130.08
-118.02
-97.87
-71.85
-43.24
-15.37
9.05
28.43
42.29
50.99
55.38
56.49
55.37
53.01
50.42
48.54
48.18
49.77
53.26
58.13
63.56
68.79
73.28
76.91
79.69
81.60
82.42
81.82
79.48
75.41
70.03
64.04
58.18
52.95
48.45
44.47
40.72
36.95
33.14
29.51
26.32
23.71
21.62
19.73
17.64
14.95
11.48
7.24
2.46
-2.53
-7.46
-12.20
-16.87
-21.75
-27.26
-33.63
-40.84
-48.57
-56.23
-63.27
-69.37
-74.54
-79.22
-84.12
-90.08
-97.78
-107.38
-118.21
-128.54
-135.91
-137.60
-131.59
-117.21
-95.47
-68.88
-40.63
-13.86
9.12
27.09
39.87
48.04
52.44
53.98
53.39
51.37
48.68
46.30
45.24
46.38
50.10
56.12
63.57
71.32
78.32
83.87
87.64
89.55
89.59
87.78
84.12
78.74
71.91
64.09
55.86
47.83
40.53
34.22
28.88
24.16
19.55
14.63
9.25
3.65
-1.72
-6.34
-10.08
-13.18
-16.31
-20.25
-25.53
-32.21
-39.79
-47.50
-54.59
-60.67
-65.92
-71.02
-76.91
-84.53
-94.42
-106.41
-119.41
-131.29
-139.30
-140.64
-133.31
-116.90
-92.85
-64.16
-34.46
-7.10
15.74
33.22
45.61
53.69
58.35
60.30
60.18
58.67
56.66
55.13
54.98
56.77
60.55
65.82
71.72
77.31
81.79
84.70
85.95
85.67
84.03
81.18
77.18
72.08
66.04
59.37
52.49
45.86
39.91
34.86
30.68
27.07
23.60
19.86
15.63
10.90
5.84
0.64
-4.58
-9.85
-15.27
-20.89
-26.66
-32.45
-38.11
-43.51
-48.54
-53.05
-56.81
-59.61
-61.40
-62.46
-63.36
-64.84
-67.54
-71.66
-76.89
-82.50
-87.68
-91.87
-95.09
-97.91
-101.27
-106.19
-113.34
-122.64
-133.03
-142.33
-147.61
-145.83
-134.77
-113.88
-84.69
-50.54
-15.63
16.14
42.15
61.49
74.71
83.24
88.69
92.38
95.23
97.75
100.24
102.88
105.81
109.03
112.40
115.60
118.16
119.65
119.79
118.55
116.15
112.84
108.76
103.83
97.80
90.47
81.90
72.51
63.03
54.15
46.41
39.96
34.66
30.24
26.41
22.97
19.79
16.80
13.93
11.18
8.54
6.08
3.81
1.61
-0.67
-3.26
-6.30
-9.83
-13.76
-17.92
-22.08
-25.98
-29.41
-32.22
-34.40
-36.08
-37.59
-39.19
-41.07
-43.10
-45.03
-46.56
-47.65
-48.61
-50.08
-52.69
-56.82
-62.37
-68.73
-75.06
-80.62
-85.08
-88.71
-92.29
-96.91
-103.62
-113.01
-124.78
-137.47
-148.52
-154.71
-153.01
-141.59
-120.50
-91.83
-59.14
-26.41
3.04
27.17
45.41
58.20
66.52
71.39
73.81
74.66
74.92
75.54
77.30
80.62
85.39
91.03
96.69
101.56
105.16
107.40
108.48
108.65
108.03
106.48
103.76
99.64
94.14
87.60
80.61
73.83
67.67
62.27
57.43
52.84
48.31
43.88
39.76
36.21
33.31
30.93
28.81
26.70
24.51
22.34
20.36
18.72
17.45
16.47
15.63
14.71
13.49
11.76
9.44
6.65
3.70
0.93
-1.50
-3.81
-6.57
-10.53
-16.26
-23.84
-32.86
-42.56
-52.20
-61.37
-70.09
-78.75
-88.05
-98.65
-110.98
-124.85
-139.13
-151.70
-159.67
-160.21
-151.45
-133.26
-107.41
-77.15
-46.26
-18.08
5.21
22.67
34.47
41.40
44.53
44.97
43.78
41.94
40.38
39.90
41.08
44.15
48.87
54.60
60.36
65.23
68.60
70.31
70.64
69.98
68.61
66.52
63.52
59.43
54.31
48.55
42.75
37.44
32.93
29.21
26.07
23.25
20.57
17.92
15.26
12.44
9.24
5.43
0.85
-4.49
-10.41
-16.58
-22.73
-28.68
-34.56
-40.66
-47.36
-54.90
-63.22
-72.01
-80.72
-88.90
-96.29
-103.01
-109.51
-116.51
-124.77
-134.78
-146.34
-158.17
-167.89
-172.47
-169.07
-156.12
-133.91
-104.71
-72.05
-39.70
-10.63
13.50
32.39
46.64
57.26
65.30
71.59
76.87
81.65
86.42
91.48
96.93
102.56
107.90
112.28
115.07
115.85
114.53
111.30
106.51
100.67
94.33
88.11
82.70
78.68
76.34
75.58
75.78
76.06
75.46
73.23
69.04
62.99
55.57
47.44
39.30
31.73
25.05
19.32
14.29
9.41
3.93
-2.83
-11.18
-20.77
-30.56
-39.07
-45.02
-48.00
-48.65
-48.53
-49.43
-52.55
-58.08
-65.27
-73.02
-80.56
-87.80
-95.17
-103.19
-111.89
-120.77
-128.95
-135.75
-141.02
-145.31
-149.53
-154.57
-160.98
-168.78
-177.43
-185.79
-192.11
-194.16
-189.53
-176.40
-154.12
-123.81
-88.15
-50.85
-15.66
14.49
38.00
54.65
65.21
70.88
72.86
72.02
68.87
63.72
56.87
48.85
40.58
33.32
28.65
28.19
33.25
44.55
61.82
83.76
108.16
132.27
153.40
169.33
178.73
181.13
176.93
167.22
153.76
138.76
124.71
113.93
108.11
107.86
112.59
120.72
130.09
138.54
144.37
146.50
144.54
138.64
129.32
117.32
103.49
88.62
73.43
58.39
43.81
29.94
17.04
5.35
-4.99
-13.97
-21.86
-29.05
-36.00
-43.16
-50.91
-59.55
-69.19
-79.72
-90.62
-101.04
-109.92
-116.44
-120.33
-122.05
-122.84
-124.34
-128.17
-135.32
-145.67
-157.70
-168.63
-175.06
-173.90
-163.38
-143.61
-116.42
-84.67
-51.27
-18.34
12.93
41.99
68.44
91.58
110.48
124.27
132.53
135.57
134.32
130.06
124.12
117.45
110.55
103.57
96.47
89.22
82.01
75.07
68.59
62.50
56.39
49.62
41.63
32.23
21.76
11.00
1.00
-7.34
-13.52
-17.63
-20.28
-22.40
-24.92
-28.52
-33.37
-39.13
-45.11
-50.59
-55.04
-58.33
-60.71
-62.61
-64.44
-66.40
-68.42
-70.29
-71.83
-73.07
-74.30
-76.08
-79.05
-83.80
-90.62
-99.29
-108.86
-117.65
-123.43
-123.95
-117.61
-104.05
-84.37
-60.92
-36.50
-13.68
5.85
21.46
33.38
42.21
48.51
52.56
54.43
54.23
52.27
49.22
45.98
43.43
42.12
42.14
43.16
44.69
46.25
47.52
48.29
48.38
47.50
45.34
41.72
36.67
30.46
23.38
15.66
7.35
-1.46
-10.51
-19.23
-26.92
-33.00
-37.35
-40.41
-43.00
-45.98
-49.85
-54.55
-59.50
-63.81
-66.53
-66.88
-64.52
-59.67
-53.24
-46.77
-41.99
-40.31
-42.12
-46.47
-51.11
-53.11
-49.84
-39.74
-22.88
-0.78
24.22
49.85
74.58
97.92
120.22
141.95
163.20
183.25
200.85
214.60
223.49
227.22
226.03
220.53
211.36
199.26
185.09
169.93
154.94
141.01
128.49
117.05
105.92
94.32
81.86
68.78
55.78
43.79
33.55
25.38
19.12
14.18
9.81
5.32
0.34
-5.20
-11.00
-16.64
-21.77
-26.20
-29.91
-32.96
-35.43
-37.36
-38.74
-39.40
-39.19
-37.94
-35.66
-32.62
-29.34
-26.48
-24.57
-23.89
-24.39
-25.90
-28.26
-31.53
-35.93
-41.63
-48.57
-56.34
-64.30
-71.73
-78.21
-83.57
-87.93
-91.38
-93.83
-94.95
-94.33
-91.80
-87.61
-82.42
-77.12
-72.55
-69.25
-67.39
-66.72
-66.45
-65.21
-61.15
-52.24
-36.90
-14.67
13.38
44.76
76.21
104.70
128.16
145.87
158.22
166.13
170.52
172.04
170.99
167.65
162.38
155.63
147.77
138.72
127.94
114.54
97.72
77.19
53.46
27.78
1.76
-23.08
-45.75
-65.97
-84.16
-101.19
-118.01
-135.34
-153.28
-171.29
-188.23
-202.76
-213.68
-220.32
-222.54
-220.69
-215.35
-207.14
-196.65
-184.54
-171.52
-158.30
-145.51
-133.40
-121.87
-110.50
-98.83
-86.66
-74.12
-61.65
-49.75
-38.72
-28.51
-18.70
-8.72
1.86
13.14
24.79
36.18
46.54
55.28
62.07
66.87
69.84
71.12
70.77
68.80
65.20
60.04
53.52
45.86
37.16
27.47
16.91
5.90
-4.71
-13.70
-19.89
-22.51
-21.69
-18.35
-13.94
-9.79
-6.76
-4.96
-4.00
-3.29
-2.43
-1.25
0.22
1.95
4.05
6.64
9.74
13.04
15.96
17.87
18.32
17.26
15.09
12.38
9.67
7.22
5.03
2.99
1.02
-0.76
-2.10
-2.63
-2.13
-0.58
1.83
4.74
7.80
10.78
13.61
16.30
18.89
21.28
23.28
24.66
25.27
25.08
24.31
23.25
22.10
21.03
20.00
18.97
17.92
16.89
15.91
14.90
13.78
12.47
11.07
9.94
9.51
10.08
11.49
13.14
14.09
13.53
11.12
7.20
2.57
-1.88
-5.48
-8.10
-10.08
-12.10
-15.01
-19.52
-26.03
-34.39
-43.64
-52.09
-57.64
-58.40
-53.39
-42.98
-28.80
-13.25
1.40
13.60
22.81
29.39
34.16
38.01
41.65
45.61
50.17
55.45
61.31
67.33
72.94
77.53
80.71
82.39
82.71
81.92
80.23
77.69
74.20
69.70
64.22
57.94
51.21
44.38
37.71
31.30
25.08
18.83
12.32
5.37
-2.06
-9.90
-17.98
-26.06
-33.97
-41.71
-49.46
-57.51
-66.14
-75.34
-84.65
-93.15
-99.61
-102.92
-102.45
-98.39
-91.78
-84.10
-76.91
-71.34
-67.91
-66.58
-67.02
-68.85
-71.82
-75.77
-80.50
-85.64
-90.52
-94.20
-95.54
-93.33
-86.58
-74.79
-58.28
-38.26
-16.71
4.03
21.75
34.95
43.03
46.36
46.04
43.48
40.02
36.72
34.25
32.90
32.72
33.58
35.28
37.49
39.84
41.89
43.36
44.21
44.70
45.33
46.54
48.61
51.38
54.37
56.94
58.61
59.20
58.98
58.54
58.54
59.52
61.57
64.33
66.99
68.51
67.91
64.57
58.39
49.79
39.58
28.80
18.47
9.45
2.28
-2.93
-6.48
-8.96
-11.11
-13.50
-16.36
-19.61
-22.99
-26.22
-29.21
-32.09
-35.22
-39.03
-43.93
-50.17
-57.64
-65.68
-73.06
-78.12
-79.13
-74.90
-65.32
-51.50
-35.57
-19.99
-6.79
2.93
9.16
12.71
14.70
16.11
17.57
19.33
21.46
23.91
26.63
29.50
32.34
34.96
37.16
38.90
40.16
41.02
41.56
41.89
42.13
42.37
42.63
42.78
42.56
41.64
39.83
37.24
34.28
31.47
29.18
27.37
25.57
23.16
19.72
15.28
10.29
5.34
0.81
-3.22
-6.98
-10.69
-14.46
-18.18
-21.71
-25.02
-28.21
-31.41
-34.64
-37.77
-40.66
-43.33
-46.06
-49.33
-53.57
-58.94
-65.16
-71.66
-77.79
-83.11
-87.56
-91.60
-96.01
-101.61
-109.00
-118.15
-128.25
-137.63
-144.06
-145.30
-139.76
-127.06
-108.16
-85.21
-60.85
-37.57
-17.15
-0.41
12.60
22.36
29.50
34.65
38.37
41.17
43.59
46.14
49.24
53.14
57.79
62.86
67.92
72.52
76.45
79.64
82.13
83.90
84.72
84.25
82.22
78.64
73.92
68.78
64.00
60.06
57.07
54.68
52.33
49.52
45.98
41.81
37.39
33.22
29.71
26.98
24.85
22.91
20.67
17.75
14.01
9.57
4.74
-0.13
-4.75
-9.07
-13.25
-17.59
-22.50
-28.14
-34.43
-41.00
-47.34
-53.06
-58.12
-62.91
-68.09
-74.45
-82.45
-92.04
-102.42
-112.07
-118.97
-121.05
-116.72
-105.43
-87.88
-65.95
-42.20
-19.22
1.05
17.61
30.29
39.49
45.80
49.77
51.93
52.84
53.12
53.51
54.58
56.70
59.86
63.68
67.62
71.09
73.79
75.63
76.77
77.41
77.58
77.07
75.52
72.60
68.24
62.81
57.01
51.60
47.12
43.61
40.70
37.87
34.65
30.94
26.98
23.18
19.95
17.41
15.38
13.42
11.07
8.01
4.19
-0.23
-4.89
-9.48
-13.76
-17.70
-21.45
-25.31
-29.54
-34.30
-39.56
-45.11
-50.60
-55.74
-60.40
-64.69
-68.97
-73.78
-79.61
-86.82
-95.36
-104.62
-113.33
-119.60
-121.35
-116.90
-105.55
-88.01
-66.20
-42.83
-20.56
-1.37
13.78
24.91
32.65
37.84
41.24
43.48
45.09
46.52
48.23
50.52
53.52
57.07
60.79
64.20
66.99
69.07
70.61
71.81
72.66
72.89
72.02
69.70
65.89
60.95
55.52
50.22
45.42
41.20
37.47
34.07
30.92
28.05
25.46
23.18
21.14
19.21
17.31
15.31
13.16
10.84
8.39
5.86
3.34
0.90
-1.50
-3.95
-6.60
-9.51
-12.75
-16.24
-19.85
-23.41
-26.72
-29.69
-32.37
-34.97
-37.73
-40.82
-44.19
-47.56
-50.58
-53.04
-55.02
-56.81
-58.87
-61.70
-65.72
-71.25
-78.30
-86.43
-94.44
-100.49
-102.40
-98.40
-87.81
-71.43
-51.37
-30.32
-10.79
5.64
18.37
27.58
33.82
37.64
39.61
40.27
40.31
40.50
41.55
43.87
47.45
51.90
56.57
60.87
64.38
66.92
68.57
69.47
69.69
69.21
67.87
65.50
62.04
57.63
52.69
47.78
43.41
39.84
37.03
34.67
32.32
29.68
26.70
23.59
20.65
18.16
16.21
14.66
13.32
11.91
10.30
8.41
6.16
3.50
0.35
-3.31
-7.43
-11.83
-16.21
-20.21
-23.50
-25.97
-27.75
-29.26
-31.11
-33.87
-37.79
-42.72
-48.13
-53.26
-57.57
-60.92
-63.69
-66.66
-70.72
-76.48
-83.99
-92.45
-100.30
-105.49
-105.97
-100.34
-88.33
-71.00
-50.48
-29.37
-10.04
5.93
17.86
25.91
30.71
32.98
33.44
32.70
31.34
29.97
29.18
29.44
30.94
33.55
36.88
40.37
43.53
46.00
47.64
48.36
48.12
46.81
44.37
40.85
36.45
31.53
26.48
21.66
17.28
13.42
10.01
6.96
4.14
1.51
-1.00
-3.45
-6.00
-8.87
-12.37
-16.65
-21.70
-27.35
-33.32
-39.46
-45.88
-52.91
-60.93
-70.10
-80.18
-90.58
-100.53
-109.41
-116.97
-123.41
-129.35
-135.56
-142.78
-151.32
-160.91
-170.49
-178.26
-182.02
-179.69
-169.96
-152.76
-129.35
-101.99
-73.35
-45.78
-20.82
0.89
19.46
35.29
48.76
60.11
69.45
77.01
83.20
88.65
93.97
99.61
105.61
111.59
116.95
121.12
123.85
125.33
126.04
126.53
127.13
127.72
127.80
126.65
123.72
118.84
112.34
104.92
97.40
90.39
84.19
78.75
73.86
69.28
64.86
60.51
56.19
51.83
47.25
42.29
36.82
30.85
24.50
18.00
11.59
5.46
-0.25
-5.58
-10.67
-15.79
-21.30
-27.60
-34.98
-43.40
-52.39
-60.94
-67.66
-71.09
-70.10
-64.23
-53.93
-40.42
-25.46
-10.84
1.94
12.03
19.21
23.79
26.29
27.27
27.19
26.49
25.61
25.11
25.56
27.37
30.61
34.97
39.85
44.60
48.74
52.05
54.51
56.13
56.90
56.67
55.33
52.87
49.47
45.50
41.40
37.59
34.31
31.64
29.46
27.55
25.76
23.98
22.17
20.32
18.37
16.19
13.64
10.62
7.17
3.35
-0.72
-4.92
-9.18
-13.39
-17.46
-21.35
-25.15
-29.09
-33.48
-38.51
-44.11
-49.92
-55.47
-60.39
-64.64
-68.64
-73.05
-78.60
-85.71
-94.24
-103.32
-111.41
-116.61
-117.14
-111.89
-100.76
-84.76
-65.74
-45.88
-27.17
-11.03
1.81
11.27
17.74
21.87
24.35
25.85
26.91
27.95
29.29
31.17
33.73
36.98
40.76
44.73
48.54
51.83
54.38
56.08
56.96
57.02
56.25
54.56
51.95
48.56
44.68
40.78
37.32
34.68
32.90
31.74
30.74
29.43
27.50
24.96
22.12
19.43
17.27
15.79
14.79
13.81
12.28
9.77
6.16
1.74
-2.96
-7.42
-11.33
-14.80
-18.30
-22.38
-27.46
-33.57
-40.34
-47.18
-53.49
-58.87
-63.21
-66.68
-69.73
-72.99
-77.09
-82.40
-88.74
-95.07
-99.63
-100.25
-95.13
-83.48
-65.98
-44.62
-22.14
-1.18
16.36
29.64
38.72
44.12
46.49
46.42
44.50
41.39
37.95
35.09
33.59
33.94
36.24
40.21
45.27
50.72
55.86
60.05
62.80
63.80
62.89
60.11
55.68
49.99
43.58
37.01
30.79
25.29
20.70
17.01
14.10
11.80
9.93
8.32
6.76
5.06
3.01
0.45
-2.73
-6.65
-11.45
-17.19
-23.85
-31.16
-38.62
-45.61
-51.69
-56.78
-61.34
-66.15
-72.11
-79.71
-88.73
-98.07
-105.94
-110.26
-109.25
-101.98
-88.70
-70.81
-50.42
-29.78
-10.75
5.43
18.24
27.59
33.63
36.72
37.42
36.56
35.17
34.36
34.94
37.28
41.31
46.54
52.27
57.79
62.53
66.04
68.07
68.51
67.39
64.80
60.95
56.15
50.74
45.13
39.64
34.49
29.69
25.06
20.35
15.38
10.14
4.80
-0.39
-5.24
-9.74
-14.06
-18.49
-23.27
-28.56
-34.34
-40.45
-46.63
-52.56
-57.96
-62.73
-67.08
-71.63
-77.29
-84.96
-94.91
-106.37
-117.40
-125.21
-127.00
-120.95
-106.84
-86.24
-61.97
-37.20
-14.61
4.16
18.60
28.98
35.96
40.26
42.56
43.50
43.80
44.22
45.51
48.21
52.45
57.92
63.96
69.83
74.91
78.88
81.67
83.34
83.94
83.44
81.77
78.93
75.10
70.54
65.62
60.61
55.76
51.21
47.03
43.18
39.54
35.96
32.32
28.56
24.69
20.68
16.42
11.75
6.56
0.97
-4.74
-10.20
-15.17
-19.79
-24.48
-29.75
-35.96
-43.05
-50.58
-57.91
-64.47
-70.04
-74.83
-79.42
-84.62
-91.23
-99.69
-109.75
-120.18
-128.81
-132.99
-130.32
-119.55
-101.10
-76.99
-50.33
-24.28
-1.37
17.13
31.00
40.79
47.30
51.25
53.31
54.07
54.17
54.32
55.17
57.17
60.41
64.65
69.29
73.66
77.15
79.44
80.52
80.58
79.90
78.58
76.51
73.47
69.31
64.12
58.32
52.52
47.30
42.97
39.54
36.74
34.16
31.49
28.44
24.89
20.79
16.25
11.56
7.16
3.41
0.40
-2.24
-5.22
-9.34
-15.05
-22.24
-30.26
-38.18
-45.22
-51.11
-56.13
-61.00
-66.54
-73.45
-82.07
-92.15
-102.83
-112.50
-119.04
-120.26
-114.50
-101.26
-81.46
-57.39
-32.00
-8.20
11.86
27.11
37.53
43.77
46.69
47.22
46.11
44.14
42.11
40.85
41.01
42.94
46.51
51.11
55.89
59.98
62.87
64.41
64.75
64.11
62.62
60.19
56.67
52.07
46.62
40.85
35.40
30.72
26.99
24.00
21.27
18.29
14.75
10.61
6.10
1.66
-2.32
-5.61
-8.29
-10.74
-13.46
-16.89
-21.18
-26.17
-31.42
-36.38
-40.64
-44.04
-46.73
-49.16
-51.93
-55.73
-61.18
-68.57
-77.55
-86.89
-94.53
-97.95
-95.01
-84.73
-67.71
-46.03
-22.55
-0.05
19.49
35.17
46.92
55.17
60.42
63.19
63.98
63.42
62.22
61.13
60.72
61.31
62.91
65.27
68.02
70.75
73.15
74.91
75.86
75.85
74.76
72.52
69.17
64.88
59.97
54.88
50.03
45.71
41.97
38.58
35.12
31.22
26.77
22.03
17.56
13.95
11.48
9.93
8.62
6.72
3.61
-0.79
-6.06
-11.52
-16.62
-21.16
-25.36
-29.65
-34.39
-39.65
-45.20
-50.64
-55.57
-59.74
-63.17
-66.08
-68.85
-72.01
-76.15
-81.77
-89.08
-97.72
-106.56
-113.73
-117.04
-114.51
-105.15
-89.26
-68.51
-45.47
-22.90
-3.04
12.70
23.93
30.94
34.40
35.19
34.18
32.28
30.40
29.37
29.76
31.80
35.28
39.63
44.14
48.21
51.43
53.62
54.76
54.87
53.99
52.21
49.64
46.46
42.81
38.87
34.81
30.84
27.19
24.06
21.52
19.46
17.65
15.87
13.98
11.98
9.95
7.90
5.71
3.18
0.13
-3.46
-7.44
-11.64
-15.94
-20.32
-24.86
-29.62
-34.48
-39.21
-43.54
-47.30
-50.59
-53.82
-57.56
-62.49
-69.07
-77.34
-86.72
-95.83
-102.69
-105.12
-101.43
-90.96
-74.47
-54.02
-32.37
-12.18
4.69
17.48
26.38
32.05
35.21
36.36
35.85
34.16
31.95
30.07
29.31
30.12
32.47
35.86
39.58
42.98
45.60
47.28
