1547289905.00
64.000000
-0.00
-0.00
-0.00
-0.00
-0.00
-0.00
-0.00
-0.00
-0.00
-0.00
0.00
0.01
0.01
-0.00
-0.03
-0.05
-0.05
0.00
0.13
0.36
0.66
1.01
1.37
1.72
2.06
2.40
2.79
3.24
3.80
4.42
5.06
5.66
6.20
6.68
7.15
7.68
8.31
9.14
10.09
11.04
11.88
12.56
13.14
13.76
14.65
15.96
17.91
20.32
22.90
25.38
27.58
29.57
31.68
34.32
37.81
42.54
48.15
54.10
59.83
64.97
69.58
74.14
79.34
85.71
93.76
103.00
112.62
121.73
129.77
136.75
143.30
150.75
157.77
166.64
177.95
191.79
206.97
220.57
228.25
225.36
208.53
176.87
132.76
80.05
23.07
-34.94
-92.44
-149.16
-205.23
-260.37
-313.74
-363.87
-409.83
-450.91
-486.50
-515.74
-537.23
-549.22
-549.96
-538.37
-514.21
-478.67
-433.88
-382.45
-327.02
-269.84
-212.63
-156.66
-102.95
-52.37
-5.90
35.58
71.43
101.35
125.50
144.38
158.69
169.15
176.37
180.75
182.57
182.07
179.51
175.23
169.65
163.18
156.15
148.81
141.30
133.69
126.02
118.33
110.69
103.16
95.80
88.68
81.83
75.25
68.95
62.95
57.25
51.86
46.78
42.03
37.59
33.45
29.61
26.07
22.81
19.83
17.11
14.67
12.48
10.54
8.83
7.35
6.07
4.97
4.05
3.27
2.62
2.09
1.65
1.30
1.01
0.79
0.61
0.48
0.37
0.29
0.24
0.20
0.18
0.17
0.18
0.19
0.21
0.24
0.27
0.31
0.35
0.39
0.44
0.48
0.53
0.58
0.63
0.68
0.74
0.81
0.87
0.95
1.03
1.12
1.23
1.34
1.47
1.62
1.78
1.96
2.16
2.39
2.64
2.91
3.21
3.54
3.90
4.30
4.73
5.19
5.69
6.23
6.81
7.43
8.10
8.80
9.55
10.35
11.20
12.09
13.02
14.01
15.06
16.17
17.35
18.57
19.85
21.12
22.33
23.41
24.25
24.72
24.73
24.14
22.89
20.94
18.28
14.98
11.09
6.77
2.20
-2.42
-6.86
-10.90
-14.33
-17.03
-18.95
-20.11
-20.59
-20.55
-20.10
-19.35
-18.38
-17.24
-15.99
-14.69
-13.39
-12.17
-11.12
-10.25
-9.52
-8.78
-7.89
-6.79
-5.48
-4.07
-2.69
-1.64
-0.98
-0.61
-0.26
0.34
1.40
2.86
4.49
6.00
6.82
6.73
5.93
4.92
4.29
4.38
5.19
6.36
7.40
7.30
5.70
2.82
-0.67
-3.94
-6.40
-7.88
-8.69
-9.39
-11.61
-16.74
-25.75
-38.66
-54.27
-70.14
-83.44
-92.08
-90.43
-77.56
-55.47
-28.20
-0.14
25.41
46.90
64.35
78.36
89.48
97.05
100.53
99.85
95.58
88.76
80.53
71.87
63.55
56.07
49.08
42.26
35.23
27.78
19.95
12.11
4.83
-1.37
-6.23
-10.26
-14.06
-18.10
-22.44
-26.85
-31.03
-34.78
-38.20
-41.45
-44.88
-48.65
-52.75
-57.06
-61.48
-65.84
-69.89
-73.23
-75.22
-75.14
-72.18
-65.79
-55.85
-42.82
-27.74
-12.15
2.30
14.19
22.63
27.49
29.20
28.56
26.40
23.44
20.34
17.65
15.96
15.73
17.16
20.07
23.86
27.65
30.57
31.97
31.63
29.73
26.67
22.93
18.73
14.07
8.74
2.60
-4.22
-11.13
-17.29
-21.96
-24.81
-26.18
-26.91
-27.99
-30.16
-33.68
-38.19
-42.82
-46.44
-47.77
-45.77
-39.88
-30.34
-18.22
-5.09
7.41
18.08
26.38
32.21
35.70
36.93
36.04
33.36
29.66
25.92
22.98
21.18
20.25
19.53
18.54
17.24
16.05
15.67
16.58
18.72
21.56
24.16
25.58
25.11
22.44
17.71
11.53
4.73
-1.80
-7.38
-11.81
-15.36
-18.72
-22.71
-27.90
-34.52
-42.18
-50.10
-57.19
-62.24
-64.22
-62.38
-56.49
-46.95
-34.86
-21.65
-8.69
3.17
13.74
23.23
31.82
39.23
44.77
47.59
47.46
44.86
41.01
37.27
34.58
33.14
32.51
31.93
30.79
28.81
26.04
22.72
19.08
15.32
11.59
8.05
4.82
1.99
-0.51
-2.99
-5.85
-9.54
-14.31
-20.07
-26.54
-33.38
-40.50
-48.04
-56.17
-64.72
-72.83
-79.08
-81.90
-80.19
-73.93
-64.15
-52.46
-40.41
-28.79
-17.69
-6.86
3.74
13.58
21.66
26.99
29.02
28.01
24.88
20.87
17.14
14.42
12.96
12.66
13.22
14.22
15.20
15.68
15.29
13.78
11.02
7.06
1.95
-4.16
-10.85
-17.49
-23.23
-27.32
-29.55
-30.42
-31.20
-33.44
-38.40
-46.41
-56.75
-67.79
-77.51
-84.02
-86.05
-83.12
-75.66
-64.75
-51.84
-38.32
-25.22
-13.03
-1.89
8.06
16.52
23.04
27.34
29.64
30.72
31.79
33.88
37.44
42.18
47.23
51.57
54.57
56.13
56.79
57.38
58.66
61.05
64.53
68.70
72.86
76.05
77.12
75.01
69.11
59.76
48.28
36.68
26.80
19.58
14.55
10.14
4.42
-4.09
-15.89
-30.46
-46.71
-63.45
-79.56
-94.18
-106.56
-116.03
-122.12
-124.59
-123.60
-119.63
-113.31
-105.27
-95.90
-85.19
-72.93
-58.99
-43.57
-27.33
-11.28
3.82
17.59
30.20
41.96
52.94
62.65
70.21
74.77
76.05
74.49
71.09
66.92
62.71
58.66
54.65
50.51
46.16
41.63
36.80
31.29
24.55
16.20
6.44
-3.76
-12.86
-19.36
-22.33
-21.66
-17.99
-12.29
-5.43
2.04
9.74
17.39
24.65
31.16
36.72
41.29
44.94
47.60
49.12
49.30
48.17
46.06
43.54
41.09
38.87
36.77
34.46
31.71
28.37
24.52
20.16
15.22
9.68
3.66
-2.22
-7.11
-10.20
-11.12
-10.19
-8.43
-7.27
-8.12
-12.03
-19.32
-29.42
-41.00
-52.15
-60.93
-65.89
-66.42
-62.76
-55.81
-46.72
-36.60
-26.19
-16.00
-6.34
2.61
10.77
18.13
24.66
30.30
34.98
38.75
41.92
45.00
48.55
52.83
57.50
61.86
65.17
67.19
68.24
68.98
69.77
70.28
69.52
66.26
59.78
50.22
38.53
25.90
13.13
0.38
-12.67
-26.38
-40.60
-54.50
-66.70
-75.75
-80.47
-80.29
-75.42
-66.65
-55.12
-42.08
-28.73
-16.00
-4.66
4.80
12.11
17.13
19.81
20.26
18.80
16.25
13.95
13.51
16.31
22.91
32.79
44.43
56.04
66.04
73.45
77.91
79.26
77.21
71.37
61.44
47.58
30.43
11.08
-9.17
-29.01
-47.27
-63.06
-76.04
-86.55
-95.39
-103.52
-111.55
-119.16
-125.20
-127.99
-125.96
-118.28
-105.12
-87.60
-67.32
-45.86
-24.36
-3.38
16.85
36.06
53.71
69.04
81.41
90.70
97.35
102.09
105.36
107.06
106.53
103.15
96.99
89.00
80.79
73.83
68.64
64.52
59.95
53.38
43.97
32.03
18.72
5.61
-5.96
-15.33
-22.58
-28.46
-34.13
-40.84
-49.53
-60.64
-73.85
-88.27
-102.51
-115.09
-124.65
-130.17
-131.05
-127.18
-118.85
-106.69
-91.51
-74.20
-55.77
-37.28
-19.96
-4.94
6.81
14.80
19.11
20.22
18.97
16.28
13.02
10.04
7.97
7.05
6.98
7.12
6.72
5.40
3.37
1.13
-0.87
-2.62
-4.48
-6.83
-9.63
-12.55
-15.24
-17.76
-20.70
-24.88
-30.82
-38.38
-46.84
-54.93
-61.42
-65.26
-65.67
-62.33
-55.27
-45.12
-32.86
-19.71
-6.75
5.29
15.99
25.13
32.49
37.97
41.83
44.65
47.24
50.29
53.98
57.97
61.70
64.60
66.50
67.45
67.65
67.18
65.96
63.91
61.08
57.75
54.22
50.72
47.21
43.44
39.15
34.33
29.25
24.18
19.22
14.14
8.47
1.82
-5.82
-13.72
-20.67
-25.25
-26.38
-23.73
-17.91
-10.15
-1.91
5.70
12.29
18.07
23.64
29.39
35.27
40.63
44.48
46.03
45.11
42.27
38.41
34.38
30.74
27.72
25.44
24.12
24.23
26.12
29.65
33.66
36.13
34.73
27.62
14.45
-3.51
-23.69
-43.43
-60.81
-75.32
-87.71
-99.37
-111.59
-124.85
-138.64
-151.33
-160.50
-163.38
-157.59
-142.00
-117.36
-86.34
-52.79
-20.66
7.13
29.24
45.78
57.70
66.10
71.79
75.28
77.13
78.05
79.00
80.97
84.57
89.85
96.25
102.92
109.12
114.72
120.12
125.80
131.80
137.19
140.39
139.85
134.82
125.80
114.21
101.69
89.38
77.70
66.52
55.54
44.62
33.60
22.22
10.10
-2.95
-16.56
-29.57
-40.13
-46.32
-46.82
-41.48
-31.41
-18.53
-4.88
8.18
20.50
33.13
47.56
64.64
83.49
101.18
113.41
115.89
105.81
82.61
47.84
4.54
-43.54
-92.26
-137.43
-175.11
-202.24
-217.45
-221.55
-217.43
-208.93
-199.53
-191.33
-184.87
-179.51
-174.46
-169.15
-163.61
-158.20
-153.37
-149.48
-146.66
-144.74
-143.21
-141.24
-137.65
-131.20
-120.85
-106.27
-88.01
-67.43
-46.32
-26.27
-8.34
7.10
20.15
31.01
39.79
46.41
50.86
53.39
54.60
55.24
55.95
56.89
57.80
58.28
58.03
57.07
55.55
53.68
51.57
49.28
47.02
45.21
44.30
44.52
45.66
47.14
48.39
49.18
49.76
50.75
52.53
54.93
57.12
58.00
56.77
53.37
48.71
44.24
41.49
41.40
44.06
48.64
53.99
58.93
62.72
65.20
66.70
67.81
69.10
70.88
73.01
74.93
75.62
73.80
68.37
58.76
45.36
29.54
13.43
-0.64
-10.65
-15.30
-14.10
-7.28
4.15
18.59
34.02
48.30
59.79
67.68
72.17
74.26
75.14
75.35
74.55
71.65
65.34
54.71
39.38
19.68
-3.25
-27.26
-48.91
-63.72
-67.05
-55.75
-29.46
8.71
52.95
96.41
133.05
159.09
173.35
176.54
170.30
156.50
136.83
113.00
86.96
60.97
37.62
19.42
8.21
4.69
8.18
16.79
27.85
38.62
46.81
50.92
50.12
44.06
32.77
16.73
-2.84
-23.92
-43.98
-60.53
-71.80
-77.26
-77.58
-74.29
-69.05
-63.14
-57.16
-51.16
-44.95
-38.40
-31.66
-25.15
-19.42
-15.03
-12.44
-11.87
-13.24
-16.11
-19.86
-23.86
-27.56
-30.76
-33.42
-35.60
-37.19
-37.89
-37.35
-35.44
-32.46
-29.05
-25.87
-23.24
-21.08
-19.01
-16.76
-14.43
-12.32
-10.74
-9.58
-8.33
-6.26
-2.86
1.93
7.73
13.85
19.41
23.40
24.75
22.62
16.87
8.30
-1.45
-10.50
-17.53
-22.33
-25.80
-29.33
-34.05
-40.29
-47.49
-54.47
-60.01
-63.06
-63.03
-60.01
-54.77
-48.52
-42.85
-39.16
-38.26
-40.29
-44.80
-50.96
-57.89
-64.74
-70.67
-74.89
-76.79
-76.18
-73.51
-69.81
-66.33
-64.00
-63.10
-63.39
-64.29
-65.38
-66.54
-67.90
-69.62
-71.69
-74.03
-76.53
-79.00
-81.18
-82.36
-81.53
-77.70
-70.32
-59.73
-47.08
-33.93
-21.51
-10.44
-0.68
7.97
15.57
21.87
26.55
29.51
30.92
31.17
30.58
29.23
27.11
24.27
21.04
17.94
15.51
13.87
12.79
11.85
10.92
10.35
10.82
12.89
16.46
20.60
23.71
24.27
21.45
15.57
7.93
0.12
-6.66
-12.03
-16.27
-19.84
-22.95
-25.45
-27.08
-27.71
-27.63
-27.23
-26.78
-26.20
-25.07
-23.06
-20.18
-16.83
-13.64
-10.98
-8.77
-6.58
-3.76
0.10
5.08
10.89
16.93
22.39
26.46
28.48
28.03
25.08
19.84
12.69
4.09
-5.43
-15.08
-23.88
-30.77
-35.10
-36.79
-36.64
-35.94
-35.97
-37.58
-40.80
-44.96
-48.91
-51.48
-51.97
-50.44
-47.66
-44.83
-43.10
-43.09
-44.74
-47.32
-49.76
-50.82
-49.53
-45.37
-38.33
-29.05
-18.52
-7.80
2.53
12.71
23.55
35.74
49.12
62.13
71.98
75.73
71.29
58.48
39.21
16.99
-4.07
-20.32
-29.53
-31.29
-26.83
-18.58
-9.19
-1.00
4.42
6.40
4.89
0.36
-6.60
-15.23
-24.60
-33.69
-41.34
-46.30
-47.43
-43.91
-35.52
-22.84
-7.34
8.95
24.03
36.56
46.19
53.60
59.75
65.51
71.30
77.08
82.65
87.92
92.99
97.83
102.03
104.65
104.59
101.18
94.73
86.56
78.51
72.28
68.74
67.65
67.76
67.15
63.70
55.71
42.21
23.17
-0.53
-27.50
-56.17
-85.11
-113.23
-139.73
-164.04
-185.72
-204.34
-219.61
-231.42
-239.91
-245.57
-249.24
-252.08
-255.40
-260.35
-267.41
-276.19
-285.35
-292.99
-297.11
-296.30
-289.98
-278.57
-263.31
-245.87
-228.08
-211.59
-197.48
-186.23
-177.55
-170.66
-164.65
-158.82
-152.78
-146.40
-139.49
-131.70
-122.68
-112.31
-101.03
-89.83
-79.90
-72.06
-66.33
-62.02
-58.18
-54.25
-50.26
-46.59
-43.41
-40.20
-35.76
-28.81
-18.78
-6.29
6.83
18.20
25.72
28.40
26.51
21.32
14.67
8.47
4.60
5.03
11.61
25.35
45.32
67.85
87.18
97.35
94.69
79.74
57.20
33.83
15.64
5.61
3.32
6.34
12.30
20.22
30.32
42.82
56.72
69.59
78.41
81.03
77.21
68.64
58.14
48.74
42.42
39.78
40.29
42.76
46.18
50.12
54.80
60.82
68.64
78.17
88.68
99.18
108.87
117.66
126.20
135.60
146.97
161.13
178.67
200.01
225.39
254.17
284.36
312.31
333.45
343.58
340.40
324.26
297.95
265.63
231.53
199.08
170.58
147.27
129.42
116.27
106.03
96.23
84.41
68.87
49.19
25.86
-0.39
-29.28
-61.25
-96.81
-135.46
-174.73
-210.09
-235.92
-247.35
-242.03
-221.07
-188.81
-151.47
-115.54
-86.59
-68.57
-63.54
-71.39
-89.62
-113.49
-136.81
-153.48
-159.18
-152.48
-134.78
-109.23
-79.27
-47.68
-16.40
12.99
38.73
58.90
72.07
78.06
78.22
74.99
70.87
67.47
65.08
63.01
60.47
57.33
54.36
52.70
53.13
55.43
58.32
60.02
59.02
54.74
47.61
38.82
29.67
21.01
12.92
4.74
-4.51
-15.49
-28.00
-40.58
-50.55
-54.51
-49.19
-32.54
-4.56
32.34
73.67
113.90
147.83
171.99
185.35
189.27
186.63
180.63
173.75
167.31
161.73
157.04
153.51
151.79
152.84
157.66
166.98
181.01
199.32
220.58
242.56
262.27
276.46
282.53
279.23
267.15
248.29
225.26
200.14
173.87
146.37
117.38
87.41
58.15
32.12
11.62
-2.22
-9.83
-12.89
-13.46
-13.10
-12.58
-11.91
-10.80
-8.99
-6.42
-3.14
0.74
5.05
9.53
14.01
18.47
23.17
28.40
34.45
41.35
49.08
57.76
67.68
78.97
91.12
102.61
111.13
114.40
111.06
101.30
86.86
70.30
54.29
40.95
31.62
26.81
26.22
28.42
30.77
29.73
21.85
5.25
-19.26
-48.05
-75.80
-97.55
-110.63
-115.42
-114.71
-111.98
-109.43
-107.05
-102.90
-94.47
-80.30
-60.78
-38.04
-14.93
6.11
23.84
38.17
49.74
59.19
66.63
71.60
73.45
71.85
67.06
59.93
51.46
42.39
32.92
22.76
11.57
-0.66
-13.32
-25.34
-35.53
-43.20
-48.41
-52.08
-55.61
-60.33
-66.94
-75.30
-84.45
-92.90
-98.97
-101.13
-98.34
-90.28
-77.51
-61.47
-44.24
-28.12
-15.11
-6.50
-2.63
-3.12
-7.16
-13.93
-22.67
-32.50
-42.08
-49.34
-51.72
-46.85
-33.55
-12.64
12.91
38.65
59.96
73.51
78.04
74.27
64.21
50.04
33.38
15.18
-4.05
-23.82
-43.42
-62.09
-79.20
-94.41
-107.50
-117.97
-124.70
-126.12
-120.68
-107.76
-88.21
-64.53
-40.13
-18.15
-0.37
13.40
24.85
36.11
48.49
61.74
74.21
83.70
88.50
88.07
82.99
74.51
63.77
51.54
38.15
23.94
9.46
-4.52
-17.37
-28.91
-39.69
-50.75
-63.25
-77.85
-94.31
-111.26
-126.52
-137.66
-142.89
-141.71
-135.28
-126.18
-117.79
-113.51
-115.79
-125.42
-140.86
-158.17
-171.55
-174.69
-162.54
-133.01
-87.83
-32.23
26.50
80.99
125.55
157.09
175.02
180.49
175.39
161.67
140.99
114.73
84.22
51.04
17.17
-15.08
-43.45
-66.38
-83.52
-95.98
-106.03
-116.42
-129.37
-145.85
-165.34
-185.96
-204.92
-219.02
-225.11
-220.56
-203.97
-175.70
-138.22
-95.90
-54.44
-19.91
2.16
7.88
-3.90
-30.63
-66.04
-101.34
-127.70
-139.20
-134.80
-118.37
-96.76
-76.83
-62.94
-56.10
-54.71
-56.21
-58.42
-60.05
-60.28
-58.18
-52.54
-42.08
-26.06
-4.77
20.38
47.08
72.60
94.34
110.46
120.19
123.91
122.77
118.29
111.91
104.87
98.24
92.81
89.04
86.82
85.50
84.16
82.23
80.00
78.82
80.53
86.40
96.29
108.52
120.61
130.45
137.11
140.83
142.33
141.97
139.45
134.20
126.18
116.42
106.80
99.36
95.27
94.44
95.73
97.53
98.52
98.12
96.33
93.47
89.87
85.86
81.94
78.86
77.49
78.41
81.54
86.10
90.82
94.36
95.59
93.62
87.66
76.92
60.99
40.53
17.72
-3.59
-18.92
-24.69
-19.54
-5.11
14.06
31.55
40.70
36.62
18.12
-11.92
-47.44
-81.25
-107.38
-122.73
-127.35
-123.53
-114.25
-101.53
-86.62
-70.60
-55.07
-42.01
-33.23
-29.48
-30.14
-33.34
-35.26
-32.59
-23.84
-10.00
6.26
21.90
34.65
43.67
49.67
56.76
68.29
84.82
103.52
120.21
131.98
138.45
141.30
143.02
149.38
163.43
184.07
206.46
225.27
237.46
242.25
239.70
230.01
219.09
212.98
216.46
230.98
255.43
287.43
323.05
357.38
353.37
290.28
172.32
28.67
-107.94
-218.69
-300.01
-356.74
-395.19
-419.53
-424.96
-408.71
-370.38
-315.45
-253.58
-195.09
-149.35
-123.17
-118.73
-128.98
-147.57
-166.33
-180.39
-189.93
-194.57
-195.03
-193.70
-192.61
-189.65
-182.14
-168.52
-151.10
-134.59
-123.55
-120.07
-124.21
-134.08
-145.84
-156.56
-164.35
-169.05
-170.92
-169.64
-162.19
-147.59
-126.97
-103.07
-79.71
-59.90
-45.03
-34.46
-26.12
-18.00
-9.59
-1.18
6.78
14.16
21.34
28.36
34.66
39.03
40.07
36.77
29.51
20.01
10.52
2.93
-2.01
-4.67
-6.15
-7.59
-9.80
-12.73
-15.50
-16.77
-14.98
-8.83
2.31
18.02
36.76
56.12
73.70
87.87
98.21
105.38
110.45
114.20
116.69
117.32
115.34
110.42
102.87
93.50
83.32
73.27
64.00
55.95
49.35
44.21
40.28
37.13
34.29
31.40
28.29
24.90
21.18
16.97
12.06
6.21
-0.70
-8.70
-17.66
-27.29
-37.03
-46.08
-53.38
-57.92
-58.98
-56.42
-50.65
-42.51
-32.97
-22.84
-12.65
-2.67
6.99
16.19
24.71
32.29
38.89
44.88
51.02
58.21
67.04
77.44
88.63
99.28
107.78
112.64
112.77
107.76
97.99
84.56
68.95
52.53
36.26
20.60
5.60
-8.85
-22.89
-36.64
-50.24
-63.62
-76.19
-86.67
-93.29
-94.56
-90.05
-80.87
-69.41
-58.55
-50.69
-46.99
-47.16
-49.56
-51.66
-50.89
-45.48
-35.32
-22.23
-9.41
-0.19
3.38
1.29
-4.57
-11.48
-17.21
-20.86
-23.00
-25.08
-28.69
-34.98
-44.59
-57.70
-74.23
-94.02
-116.68
-141.57
-167.60
-193.43
-217.53
-238.38
-254.58
-264.80
-267.82
-262.69
-249.02
-227.31
-199.06
-166.39
-131.43
-95.57
-59.26
-22.50
14.16
48.80
78.05
98.13
106.65
104.02
93.57
80.34
68.75
60.89
56.02
51.83
46.39
39.50
32.75
28.23
27.08
28.94
32.51
36.77
41.86
48.87
58.82
71.40
84.53
94.98
99.62
96.68
86.26
70.23
51.60
33.78
19.86
12.02
11.07
16.44
26.43
38.87
51.94
64.45
75.93
86.26
95.31
102.84
108.60
112.43
114.26
113.95
110.95
104.42
93.54
77.97
58.25
35.83
12.68
-9.27
-28.71
-45.13
-58.82
-70.46
-80.81
-90.35
-99.09
-106.40
-111.17
-112.07
-108.18
-99.37
-86.58
-71.62
-56.55
-42.96
-31.47
-21.69
-12.72
-3.72
5.63
15.17
24.50
33.38
41.90
50.35
58.94
67.55
75.69
82.61
87.55
89.94
89.56
86.61
81.65
75.43
68.87
62.82
57.93
54.58
52.75
52.05
51.82
51.37
50.17
48.04
45.11
41.71
38.00
33.82
28.49
21.08
10.71
-2.86
-18.91
-35.66
-50.53
-60.74
-63.90
-58.61
-44.82
-23.91
1.46
27.69
50.81
67.24
74.80
73.30
64.74
52.63
40.69
31.50
25.71
22.20
19.06
14.84
9.27
3.33
-1.45
-3.76
-3.09
0.26
5.41
11.19
16.39
19.82
20.46
17.66
11.48
2.86
-6.55
-14.78
-20.16
-21.81
-19.88
-15.40
-9.79
-4.31
0.33
4.10
7.47
11.03
15.19
20.07
25.56
31.36
37.08
42.10
45.57
46.47
44.00
37.83
28.33
16.44
3.42
-9.48
-21.18
-30.86
-37.97
-42.32
-44.12
-44.05
-42.98
-41.77
-40.95
-40.72
-41.06
-41.90
-43.06
-44.14
-44.43
-42.92
-38.62
-31.02
-20.27
-7.08
7.59
22.82
37.76
51.39
62.32
68.96
70.06
65.28
55.55
42.88
29.70
18.08
9.16
3.12
-0.58
-2.75
-4.13
-5.32
-6.77
-8.94
-12.23
-17.00
-23.35
-31.03
-39.26
-46.88
-52.61
-55.60
-55.66
-53.43
-50.02
-46.46
-43.37
-40.75
-38.21
-35.24
-31.36
-26.18
-19.35
-10.70
-0.57
10.09
19.69
26.49
29.23
27.61
22.36
14.91
6.92
-0.24
-5.53
-8.29
-8.15
-5.11
0.40
7.30
14.05
18.95
20.64
18.53
12.94
4.85
-4.56
-14.36
-24.09
-33.49
-42.15
-49.13
-53.10
-52.71
-47.24
-36.96
-23.06
-7.22
8.87
23.81
36.56
46.38
52.92
56.23
56.85
55.57
53.10
49.76
45.37
39.50
31.91
22.80
12.80
2.63
-7.16
-16.37
-24.95
-32.70
-39.22
-43.99
-46.74
-47.71
-47.70
-47.74
-48.77
-51.29
-55.21
-59.88
-64.21
-66.92
-66.69
-62.55
-54.11
-41.72
-26.45
-9.73
7.05
22.96
37.65
51.25
64.03
76.13
87.36
97.12
104.46
108.20
107.04
99.97
86.70
67.99
45.77
22.71
1.52
-15.76
-28.14
-35.67
-39.08
-39.29
-37.33
-34.29
-31.43
-30.12
-31.45
-35.89
-43.02
-51.66
-60.19
-67.00
-70.76
-70.56
-65.96
-57.05
-44.49
-29.54
-13.80
1.01
13.48
22.57
27.72
28.78
25.98
20.09
12.44
4.87
-0.70
-2.73
-0.61
5.25
13.61
22.81
31.24
37.63
41.04
40.91
37.10
29.96
20.31
9.41
-1.36
-10.90
-18.69
-24.86
-30.01
-34.89
-40.07
-45.71
-51.53
-56.76
-60.26
-60.63
-56.50
-47.00
-32.12
-13.02
8.12
28.62
45.98
58.63
66.14
69.15
68.86
66.58
63.39
60.07
57.11
54.76
52.96
51.42
49.63
47.10
43.69
39.65
35.55
31.93
28.95
26.25
23.12
18.83
13.04
5.92
-1.89
-9.59
-16.62
-22.84
-28.57
-34.41
-41.04
-48.88
-57.97
-67.86
-77.64
-86.03
-91.69
-93.46
-90.67
-83.27
-71.83
-57.48
-41.62
-25.69
-10.86
2.10
12.95
21.88
29.37
35.98
42.15
48.12
53.87
59.20
63.72
66.92
68.21
67.17
63.78
58.52
52.44
46.85
42.86
40.97
40.86
41.53
41.68
40.28
36.91
31.88
26.05
20.47
15.89
12.54
10.03
7.49
3.96
-1.21
-8.04
-15.96
-23.93
-30.88
-35.98
-38.79
-39.14
-37.04
-32.61
-26.30
-19.11
-12.70
-9.07
-9.89
-15.73
-25.64
-37.32
-47.94
-55.14
-57.86
-56.48
-52.42
-47.42
-42.81
-39.34
-37.19
-36.33
-36.82
-38.77
-42.22
-46.91
-52.26
-57.50
-62.00
-65.53
-68.32
-70.90
-73.78
-77.24
-81.24
-85.44
-89.34
-92.36
-93.76
-92.65
-88.11
-79.40
-66.34
-49.50
-30.11
-9.65
10.54
29.66
47.46
64.09
79.75
94.47
107.83
118.98
126.97
131.15
131.81
130.41
129.40
131.21
137.18
146.69
157.11
164.88
166.66
160.31
145.21
122.12
93.24
62.13
33.43
11.72
-0.11
-2.54
0.22
1.52
-5.03
-22.72
-50.41
-83.37
-115.66
-142.73
-162.77
-176.39
-185.24
-190.53
-192.25
-189.47
-181.02
-166.29
-145.40
-119.02
-88.00
-53.47
-17.23
18.18
49.75
74.98
92.75
103.33
107.68
106.21
98.09
81.71
56.16
22.71
-14.59
-49.94
-77.81
-94.93
-101.11
-98.48
-89.93
-77.36
-61.10
-40.25
-13.76
18.15
53.32
87.67
116.29
135.06
142.36
139.94
132.45
125.59
123.94
129.48
141.38
157.23
174.52
191.68
208.00
222.72
234.24
239.99
237.46
225.49
205.16
179.45
152.05
126.03
103.08
83.81
68.59
57.92
52.08
50.47
51.04
50.50
45.19
32.21
10.18
-20.52
-57.79
-98.14
-137.17
-170.53
-195.04
-209.81
-216.54
-219.10
-222.10
-229.33
-242.65
-261.62
-283.61
-304.25
-318.21
-320.40
-307.70
-280.65
-243.89
-205.15
-172.84
-152.99
-147.36
-153.31
-165.46
-178.02
-186.65
-189.22
-185.58
-176.78
-164.28
-149.52
-133.72
-117.88
-102.85
-89.26
-77.32
-66.66
-56.32
-45.10
-32.21
-17.77
-3.13
9.59
18.36
22.24
21.95
19.56
17.24
15.90
14.86
12.63
8.13
1.66
-5.24
-10.84
-14.24
-15.73
-16.17
-15.85
-13.98
-9.07
0.03
13.06
28.15
42.42
52.98
57.92
56.70
50.27
40.91
31.78
26.11
26.10
31.78
40.75
49.01
52.60
49.31
39.75
27.01
15.27
7.99
6.53
9.79
14.97
18.89
19.25
15.34
8.02
-0.78
-8.90
-14.64
-17.23
-16.78
-13.93
-9.42
-3.60
3.82
13.73
27.08
44.02
63.27
82.22
97.75
107.51
110.84
109.05
105.12
102.13
101.93
104.45
108.03
110.48
110.24
106.84
100.79
93.90
87.69
82.61
78.07
73.31
68.13
62.89
57.82
52.32
47.00
42.30
38.21
34.17
29.71
24.98
20.48
16.16
10.98
6.37
4.01
4.81
8.31
13.59
20.54
30.05
43.21
60.72
87.04
126.90
183.03
254.07
334.84
417.91
495.09
558.81
579.46
537.42
434.53
297.30
160.29
45.67
-42.67
-111.30
-166.84
-209.71
-230.20
-217.69
-169.30
-93.79
-9.59
61.57
102.82
107.11
77.90
29.19
-22.75
-65.97
-97.00
-115.40
-123.13
-122.74
-117.25
-110.77
-106.44
-106.91
-113.66
-125.97
-140.43
-152.33
-157.61
-155.15
-147.84
-139.79
-134.39
-132.27
-130.84
-125.22
-111.04
-86.14
-51.85
-13.63
22.01
49.45
65.75
70.99
68.03
60.03
49.67
38.54
25.58
9.96
-7.19
-22.71
-32.97
-35.04
-30.01
-21.09
-11.69
-6.35
-7.32
-14.17
-25.36
-40.27
-58.45
-81.84
-111.14
-144.61
-181.84
-221.11
-258.79
-290.39
-312.88
-324.75
-330.40
-335.92
-325.25
-289.35
-229.56
-156.99
-85.29
-35.48
-5.35
9.30
13.31
12.08
12.07
16.30
26.38
42.45
63.07
87.13
110.55
129.56
141.45
142.32
129.90
105.83
75.64
47.00
28.93
26.75
42.78
75.98
120.34
167.24
208.57
238.82
255.92
261.72
258.64
249.28
235.36
216.66
192.31
162.33
128.18
92.21
57.15
24.63
-4.19
-28.15
-46.29
-57.92
-62.77
-61.38
-55.38
-47.20
-40.01
-36.85
-39.60
-48.37
-61.32
-75.01
-85.72
-91.17
-91.73
-90.51
-91.94
-99.52
-114.02
-132.68
-150.24
-160.98
-160.82
-148.62
-126.10
-96.94
-65.45
-35.53
-10.04
9.54
23.15
32.05
38.28
43.84
49.78
55.74
60.16
61.20
57.88
50.64
41.29
32.21
25.33
21.53
20.48
21.07
21.97
22.03
20.56
17.53
13.72
10.59
9.93
12.94
19.46
27.55
34.17
36.69
34.34
28.79
23.35
21.18
23.65
29.82
37.28
43.71
48.11
51.01
53.65
56.93
60.83
64.43
66.50
66.04
62.43
55.47
45.34
32.81
19.32
6.89
-2.49
-7.54
-8.16
-5.41
-1.10
2.90
5.15
4.86
2.01
-2.93
-9.04
-15.21
-20.27
-23.21
-23.58
-21.77
-19.21
-18.08
-20.55
-27.86
-39.63
-53.82
-67.38
-77.27
-81.22
-78.14
-67.99
-51.72
-31.17
-9.05
11.45
27.47
37.30
40.70
38.45
31.36
19.58
2.71
-19.15
-44.29
-69.14
-89.39
-101.65
-105.02
-101.24
-93.68
-85.68
-79.34
-75.29
-73.29
-72.96
-74.24
-77.23
-81.93
-88.04
-95.07
-102.57
-110.28
-117.79
-124.18
-127.77
-126.37
-118.10
-102.22
-79.68
-52.85
-24.78
1.92
25.69
46.02
63.00
76.68
86.70
92.45
93.43
89.75
82.27
72.57
62.56
54.09
48.59
46.70
47.94
50.74
52.74
51.56
45.71
35.17
21.39
6.50
-7.60
-19.96
-30.57
-39.89
-48.15
-55.07
-60.17
-63.22
-64.40
-64.12
-62.43
-58.76
-52.10
-41.73
-27.77
-11.27
6.24
23.57
40.26
56.53
72.61
88.13
101.89
112.24
117.69
117.41
111.53
100.92
86.97
71.39
56.03
42.67
32.71
26.82
24.85
25.91
28.69
31.92
34.62
36.15
36.21
34.59
31.25
26.28
19.97
12.90
5.91
-0.04
-4.02
-5.36
-3.84
0.25
6.29
13.62
21.90
31.28
42.29
55.41
70.58
86.94
103.11
117.66
129.67
138.81
145.05
148.16
147.41
141.73
130.40
113.64
92.84
70.16
47.61
26.47
7.08
-10.62
-26.31
-38.94
-46.95
-49.06
-45.14
-36.57
-25.81
-15.68
-8.32
-4.66
-4.26
-5.79
-7.63
-8.44
-7.54
-5.01
-1.58
1.66
3.57
3.38
0.94
-2.96
-6.71
-8.22
-5.56
2.21
14.63
29.88
45.35
58.68
68.41
74.26
76.79
76.70
74.41
69.94
63.13
54.00
42.94
30.72
18.24
6.36
-4.30
-13.45
-21.18
-28.00
-34.75
-42.35
-51.41
-61.95
-73.30
-84.34
-93.88
-101.03
-105.39
-106.95
-106.06
-103.32
-99.72
-96.50
-95.02
-96.21
-100.06
-105.31
-109.56
-109.92
-104.04
-90.87
-71.09
-46.76
-20.74
4.31
26.53
45.11
60.22
72.40
82.05
89.15
93.44
94.89
94.03
91.82
89.14
86.20
82.45
77.16
70.22
62.51
55.58
50.53
47.02
43.25
36.89
26.59
12.93
-1.76
-14.80
-24.78
-32.27
-39.43
-48.63
-61.02
-76.07
-91.89
-106.36
-118.07
-126.60
-132.16
-134.95
-134.65
-130.58
-122.19
-109.63
-94.06
-77.41
-61.84
-49.15
-40.37
-35.68
-34.58
-36.18
-39.50
-43.60
-47.73
-51.28
-53.69
-54.37
-52.71
-48.25
-40.99
-31.52
-20.92
-10.31
-0.48
8.44
16.79
25.03
33.32
41.47
48.98
55.16
59.26
60.53
58.46
53.08
45.27
36.72
29.30
24.28
21.73
20.68
19.95
19.02
18.44
19.42
22.78
28.18
34.12
38.63
40.24
38.58
34.23
28.15
21.10
13.48
5.47
-2.64
-10.31
-16.86
-21.73
-24.59
-25.51
-24.86
-23.31
-21.71
-20.86
-21.30
-22.97
-25.20
-26.96
-27.39
-26.23
-23.98
-21.57
-19.91
-19.43
-20.05
-21.43
-23.32
-25.73
-28.65
-31.71
-33.88
-33.63
-29.47
-20.63
-7.47
8.60
25.65
41.89
56.18
68.21
78.18
86.46
93.27
98.58
102.22
104.06
104.11
102.49
99.25
94.28
87.38
78.51
68.08
57.15
47.21
39.65
35.06
32.83
31.41
28.97
24.33
17.47
9.35
1.19
-6.40
-13.83
-22.32
-33.13
-46.73
-62.47
-78.80
-93.86
-105.88
-113.34
-115.03
-110.08
-98.30
-80.48
-58.50
-34.90
-12.16
7.98
24.70
37.94
47.82
54.47
58.01
58.83
57.77
55.96
54.39
53.49
53.04
52.35
50.60
47.19
41.89
34.93
26.92
18.74
11.35
5.52
1.52
-0.97
-2.73
-4.55
-6.92
-9.82
-12.72
-14.88
-15.69
-14.95
-13.01
-10.69
-9.05
-9.11
-11.54
-16.34
-22.76
-29.35
-34.34
-36.07
-33.60
-26.98
-17.24
-5.95
5.36
15.75
25.19
34.38
44.21
55.16
66.75
77.65
86.05
90.46
90.23
85.76
78.10
68.40
57.31
44.97
31.32
16.78
2.50
-9.80
-18.69
-23.82
-26.37
-28.67
-33.12
-40.99
-51.84
-63.61
-73.68
-80.04
-82.11
-80.91
-78.43
-76.74
-77.18
-80.01
-84.54
-89.54
-93.58
-95.40
-94.00
-88.78
-79.65
-67.10
-52.13
-36.12
-20.54
-6.72
4.39
12.26
16.79
18.24
17.21
14.50
11.03
7.65
4.98
3.30
2.58
2.55
2.90
3.43
4.13
5.06
6.33
7.86
9.37
10.44
10.59
9.43
6.75
2.57
-2.85
-8.98
-15.12
-20.54
-24.74
-27.76
-30.20
-33.08
-37.40
-43.63
-51.36
-59.27
-65.56
-68.44
-66.70
-59.92
-48.47
-33.29
-15.68
2.80
20.35
35.04
45.07
49.19
47.16
39.95
29.61
18.72
9.56
3.56
1.07
1.56
4.11
7.93
12.60
18.04
24.39
31.74
39.93
48.38
56.04
61.52
63.48
61.10
54.51
44.77
33.36
21.60
10.10
-1.14
-12.33
-23.26
-33.04
-40.30
-43.69
-42.47
-36.62
-26.86
-14.25
0.07
15.12
30.13
44.67
58.54
71.64
83.64
93.84
101.32
105.30
105.71
103.43
99.97
96.78
94.48
92.57
89.84
85.10
77.90
68.71
58.53
48.30
38.50
29.10
19.94
11.02
2.49
-5.52
-13.19
-21.04
-29.81
-40.06
-51.98
-65.37
-79.66
-93.98
-107.01
-116.91
-121.51
-118.82
-107.67
-88.37
-62.89
-34.47
-6.82
16.86
34.58
45.77
50.96
51.27
47.82
41.38
32.37
21.05
7.76
-6.82
-21.56
-34.89
-45.09
-50.64
-50.78
-45.87
-37.37
-27.39
-18.02
-10.68
-5.92
-3.70
-3.91
-6.70
-12.42
-21.28
-33.06
-47.01
-62.01
-76.99
-90.96
-103.04
-112.24
-117.52
-118.07
-113.75
-105.33
-94.34
-82.53
-71.24
-61.08
-51.84
-42.94
-33.76
-23.99
-13.73
-3.40
6.40
15.08
22.17
27.41
30.75
32.36
32.59
31.98
31.15
30.78
31.37
33.09
35.58
38.10
39.80
40.12
39.08
37.26
35.45
34.17
33.42
32.56
30.53
26.08
18.27
6.95
-6.74
-20.33
-30.58
-34.60
-31.18
-21.51
-8.96
2.18
8.31
7.80
1.33
-8.73
-19.30
-27.68
-32.10
-31.88
-27.35
-19.70
-10.55
-1.55
6.14
12.15
16.91
21.20
25.79
31.05
36.90
42.96
48.73
53.68
57.24
58.79
57.62
53.15
45.07
33.60
19.51
4.05
-11.19
-24.54
-34.57
-40.41
-42.02
-40.28
-36.72
-32.95
-30.12
-28.38
-26.87
-24.17
-18.81
-9.89
2.57
17.64
33.72
48.84
61.09
69.00
71.73
69.36
62.73
53.39
43.13
33.65
26.10
20.85
17.45
14.74
11.35
6.23
-0.88
-9.26
-17.44
-23.68
-26.54
-25.45
-20.83
-14.02
-6.93
-1.53
0.76
-0.70
-5.58
-12.90
-21.40
-29.90
-37.56
-43.87
-48.64
-52.09
-54.90
-58.13
-62.85
-69.54
-77.56
-85.09
-89.64
-89.03
-82.22
-69.62
-52.89
-34.30
-16.12
-0.18
12.34
20.99
26.10
28.68
30.17
31.85
34.40
37.72
41.15
44.05
46.22
47.99
49.96
52.58
55.82
59.25
62.39
64.98
67.08
68.91
70.59
71.93
72.51
71.84
69.66
66.00
61.16
55.48
49.19
42.33
34.88
26.91
18.64
10.43
2.63
-4.67
-11.58
-18.31
-24.91
-31.02
-35.91
-38.64
-38.41
-34.95
-28.53
-20.06
-10.68
-1.54
6.47
12.78
17.12
19.40
19.66
18.02
14.78
10.50
5.99
2.15
-0.34
-1.22
-0.73
0.48
1.66
2.25
2.02
1.09
-0.15
-1.25
-1.83
-1.73
-1.14
-0.59
-0.80
-2.38
-5.58
-10.09
-15.16
-19.85
-23.51
-26.00
-27.71
-29.42
-31.98
-35.91
-41.28
-47.51
-53.46
-57.69
-58.79
-55.90
-48.98
-38.84
-26.90
-14.64
-3.24
6.66
14.85
21.28
25.85
28.44
28.99
27.75
25.36
22.67
20.34
18.68
17.43
16.05
14.11
11.56
8.81
6.57
5.38
5.39
6.13
6.80
6.48
4.62
1.20
-3.24
-7.85
-11.78
-14.58
-16.30
-17.50
-18.91
-21.22
-24.81
-29.67
-35.50
-41.69
-47.33
-51.30
-52.42
-49.79
-43.10
-32.93
-20.59
-7.73
4.13
14.02
21.61
26.96
30.35
32.02
32.23
31.23
29.42
27.22
24.99
22.90
20.93
19.00
17.05
15.19
13.60
12.46
11.81
11.46
10.98
9.87
7.69
4.23
-0.45
-5.97
-11.76
-17.20
-21.83
-25.45
-28.25
-30.78
-33.77
-37.79
-42.89
-48.48
-53.27
-55.73
-54.48
-48.93
-39.40
-27.09
-13.65
-0.64
10.82
20.21
27.46
32.75
36.23
38.08
38.48
37.70
36.13
34.13
31.94
29.64
27.19
24.57
21.84
19.25
17.08
15.55
14.67
14.18
13.58
12.29
9.86
6.13
1.34
-3.92
-8.95
-13.22
-16.67
-19.79
-23.48
-28.63
-35.64
-44.06
-52.54
-59.21
-62.27
-60.58
-54.09
-43.76
-31.25
-18.37
-6.60
3.23
10.89
16.66
21.01
24.37
26.98
28.86
29.89
29.99
29.14
27.51
25.35
22.92
20.41
17.96
15.61
13.36
11.16
8.84
6.20
3.04
-0.64
-4.68
-8.72
-12.49
-15.99
-19.58
-23.84
-29.28
-36.14
-44.26
-53.13
-62.06
-70.11
-76.21
-79.13
-77.76
-71.46
-60.50
-46.10
-30.14
-14.62
-1.12
9.51
17.05
21.70
23.86
23.94
22.30
19.19
14.65
8.57
0.85
-8.33
-18.30
-28.06
-36.61
-43.27
-47.90
-50.75
-52.22
-52.67
-52.45
-51.99
-51.88
-52.69
-54.78
-58.09
-62.10
-66.11
-69.54
-72.22
-74.46
-76.88
-80.12
-84.41
-89.36
-93.73
-95.61
-92.80
-83.47
-66.85
-43.59
-15.78
13.59
41.36
64.92
82.63
94.02
99.56
100.43
98.28
94.88
91.90
90.53
91.29
93.83
97.32
100.77
103.59
105.77
107.87
110.67
114.75
120.19
126.49
132.64
137.41
139.74
139.02
135.33
129.38
122.26
114.94
108.02
101.48
94.84
87.56
79.28
70.13
60.66
51.76
44.41
39.41
37.21
37.68
40.12
43.45
46.49
48.33
48.50
46.92
43.61
38.33
30.48
19.34
4.53
-13.46
-33.00
-51.54
-66.25
-75.02
-77.24
-74.04
-67.70
-60.68
-54.52
-49.51
-45.05
-40.59
-36.42
-33.76
-34.01
-37.77
-44.26
-51.57
-57.81
-62.12
-65.10
-68.25
-72.99
-79.69
-87.46
-94.67
-99.61
-101.07
-98.54
-92.10
-82.33
-70.22
-57.10
-44.42
-33.32
-24.30
-17.14
-11.24
-6.08
-1.56
1.92
3.86
4.06
2.94
1.37
0.33
0.44
1.73
3.71
5.67
7.06
7.66
7.56
6.96
5.95
4.44
2.24
-0.77
-4.50
-8.69
-12.99
-17.18
-21.24
-25.45
-30.19
-35.83
-42.40
-49.36
-55.58
-59.48
-59.48
-54.57
-44.66
-30.71
-14.37
2.48
18.33
32.25
43.85
53.08
59.94
64.44
66.66
66.88
65.65
63.61
61.32
59.03
56.71
54.18
51.31
48.23
45.29
42.91
41.33
40.49
39.92
38.93
36.78
33.05
27.76
21.43
14.95
9.27
4.98
2.04
-0.30
-3.26
-8.02
-15.25
-24.64
-34.91
-43.96
-49.56
-50.00
-44.72
-34.52
-21.30
-7.43
5.04
14.93
22.11
27.22
31.14
34.44
37.23
39.18
39.83
39.02
36.95
34.12
31.16
28.49
26.20
24.10
21.84
19.21
16.31
13.56
11.43
10.19
9.57
8.86
7.13
3.68
-1.59
-8.11
-14.79
-20.56
-24.75
-27.38
-29.15
-31.08
-34.28
-39.47
-46.72
-55.33
-63.79
-70.18
-72.57
-69.67
-61.26
-48.36
-33.04
-17.73
-4.56
5.33
11.91
16.04
18.91
21.47
24.07
26.48
28.34
29.52
30.50
32.31
36.13
42.80
52.39
64.05
76.20
86.87
94.22
96.90
94.36
86.94
75.77
62.38
48.31
34.76
22.41
11.44
1.73
-6.96
-14.79
-21.82
-28.01
-33.26
-37.40
-40.19
-41.39
-40.84
-38.62
-35.10
-30.79
-26.11
-21.26
-16.06
-10.13
-3.02
5.61
15.91
27.84
41.11
55.01
68.27
79.13
85.69
86.56
81.49
71.61
59.06
46.22
34.85
25.72
18.79
13.73
10.52
9.50
11.10
15.29
21.31
27.81
33.42
37.22
38.87
38.41
35.75
30.44
21.91
9.96
-4.79
-20.88
-36.32
-49.35
-58.87
-64.58
-66.77
-65.97
-62.68
-57.31
-50.24
-41.78
-32.19
-21.65
-10.28
1.65
13.48
24.18
32.46
37.14
37.53
33.68
26.42
17.20
7.66
-0.78
-7.40
-12.28
-16.12
-19.86
-24.09
-28.83
-33.59
-37.83
-41.35
-44.43
-47.67
-51.53
-55.93
-60.22
-63.55
-65.36
-65.82
-65.82
-66.64
-69.31
-74.06
-80.06
-85.55
-88.32
-86.42
-78.72
-65.36
-47.61
-27.55
-7.44
10.83
26.04
37.74
46.09
51.67
55.15
57.06
57.55
56.39
53.00
46.88
37.88
26.51
13.94
1.64
-9.06
-17.38
-23.13
-26.55
-28.06
-27.98
-26.66
-24.48
-22.05
-20.11
-19.28
-19.76
-21.29
-23.21
-24.89
-26.07
-27.02
-28.34
-30.60
-33.87
-37.51
-40.33
-40.94
-38.28
-31.98
-22.37
-10.31
3.17
17.20
31.17
44.74
57.64
69.52
79.84
88.00
93.53
96.32
96.68
95.23
92.56
89.05
84.67
79.18
72.31
64.07
54.69
44.63
34.28
23.84
13.27
2.38
-9.07
-21.22
-33.97
-46.88
-59.15
-69.80
-78.00
-83.45
-86.54
-88.40
-90.52
-94.12
-99.63
-106.35
-112.53
-115.90
-114.34
-106.71
-93.31
-75.84
-56.93
-39.24
-24.53
-13.27
-4.65
2.79
10.38
18.76
27.68
36.26
43.45
48.53
51.39
52.58
53.17
54.38
57.28
62.33
69.28
77.15
84.56
90.16
93.10
93.24
91.04
87.32
82.91
78.42
74.16
70.15
66.24
62.05
57.14
51.01
43.38
34.36
24.54
14.92
6.66
0.70
-2.59
-3.57
-3.26
-3.03
-4.09
-7.16
-12.28
-18.93
-26.33
-33.81
-41.04
-47.96
-54.69
-61.30
-67.74
-73.87
-79.48
-84.36
-88.13
-90.19
-89.73
-86.02
-78.78
-68.59
-56.92
-45.87
-37.45
-32.80
-31.64
-32.26
-32.18
-29.16
-22.23
-12.23
-1.48
7.13
11.18
9.54
2.60
-8.00
-19.92
-30.71
-38.32
-41.52
-40.24
-35.62
-29.79
-25.15
-23.60
-25.80
-31.11
-37.83
-44.04
-48.29
-50.09
-49.85
-48.47
-46.68
-44.56
-41.35
-35.71
-26.31
-12.50
5.36
25.79
46.41
64.39
77.01
82.31
79.60
69.83
55.39
39.42
24.78
13.32
5.58
1.09
-0.97
-1.37
-0.77
0.20
0.91
0.90
0.28
-0.12
0.89
4.12
9.40
15.38
20.17
22.17
20.83
16.85
11.66
6.75
3.03
0.65
-0.74
-1.57
-1.98
-1.80
-0.78
1.22
4.08
7.54
11.28
14.99
18.15
19.86
18.93
14.26
5.37
-7.19
-21.83
-36.37
-48.68
-57.35
-61.99
-63.29
-62.66
-61.73
-61.73
-63.03
-64.90
-65.78
-63.82
-57.60
-46.59
-31.19
-12.42
8.49
30.34
52.01
72.32
90.18
104.74
115.62
122.95
127.16
128.77
128.15
125.68
121.82
117.24
112.58
108.09
103.40
97.51
89.20
77.56
62.51
44.84
25.90
7.07
-10.77
-27.17
-41.95
-54.69
-64.56
-70.55
-72.20
-70.22
-66.71
-64.53
-66.15
-72.43
-82.09
-92.12
-99.04
-100.24
-94.81
-83.51
-68.18
-50.86
-33.20
-16.34
-1.05
12.17
23.12
32.00
39.51
46.61
54.06
62.03
69.83
76.11
79.31
78.27
72.66
63.06
50.78
37.61
25.58
16.78
13.03
15.40
23.76
36.52
50.88
63.81
73.06
77.86
78.92
77.71
75.42
72.12
66.73
57.74
44.37
27.28
8.49
-9.48
-24.78
-36.95
-46.88
-56.00
-65.34
-74.94
-83.94
-91.31
-96.58
-100.11
-102.88
-105.65
-108.37
-109.98
-108.90
-103.83
-94.32
-80.94
-65.11
-48.45
-32.25
-17.19
-3.35
9.55
21.73
33.18
43.59
52.47
59.41
64.29
67.38
69.23
70.59
72.10
74.01
75.92
76.55
73.91
65.75
50.44
28.02
0.61
-27.93
-53.25
-72.11
-83.35
-87.73
-86.82
-81.69
-72.33
-58.16
-39.24
-17.15
5.14
24.38
38.47
47.22
52.03
54.73
56.56
57.78
58.19
57.88
57.68
59.07
63.33
70.78
80.24
89.27
94.95
94.95
88.50
76.76
62.40
48.51
37.32
29.30
22.98
15.75
5.10
-10.28
-30.00
-52.22
-74.41
-94.14
-109.42
-118.95
-122.00
-118.55
-109.32
-95.87
-80.44
-65.55
-53.42
-45.37
-41.47
-40.52
-40.46
-39.09
-34.79
-26.96
-15.99
-2.91
11.17
25.41
39.42
53.01
65.83
77.17
85.98
91.20
92.30
89.58
84.22
77.86
72.01
67.40
63.74
59.89
54.35
46.05
34.85
21.64
8.03
-4.17
-13.57
-19.46
-21.83
-21.27
-18.67
-15.11
-11.69
-9.47
-9.19
-10.97
-14.17
-17.51
-19.54
-19.16
-16.01
-10.30
-2.45
7.27
18.71
31.47
44.64
56.74
66.27
72.36
75.11
75.35
73.89
70.60
64.23
52.82
34.81
10.18
-19.15
-49.71
-77.66
-99.95
-114.96
-122.45
-122.98
-117.19
-105.57
-88.65
-67.47
-43.85
-20.39
0.07
15.01
22.60
22.14
14.25
0.80
-15.57
-32.21
-47.19
-59.53
-69.15
-76.48
-81.67
-84.31
-83.67
-79.42
-72.28
-64.09
-57.09
-53.28
-54.27
-60.83
-72.72
-88.39
-104.94
-118.53
-124.97
-120.72
-104.30
-77.76
-46.08
-15.62
8.39
23.63
31.14
34.41
37.95
47.43
64.97
88.09
110.29
124.80
128.76
124.30
115.53
107.33
104.06
107.96
119.38
136.03
153.33
165.46
166.93
154.46
128.52
93.07
53.84
16.57
-14.55
-37.38
-51.57
-57.87
-57.51
-51.62
-41.65
-30.14
-20.48
-16.00
-18.50
-27.29
-39.69
-52.21
-62.01
-67.95
-70.78
-72.11
-73.34
-74.84
-75.89
-75.20
-71.78
-65.34
-56.60
-47.02
-38.31
-31.88
-28.40
-27.75
-29.18
-31.65
-34.12
-35.67
-35.62
-33.46
-28.93
-22.12
-13.47
-3.75
6.18
15.63
24.26
31.92
38.48
43.44
45.92
44.81
39.30
29.24
15.48
-0.34
-16.09
-29.72
-39.72
-45.34
-46.62
-44.11
-38.47
-30.13
-19.25
-5.98
9.09
24.53
38.17
47.70
51.64
50.10
44.94
39.21
35.88
36.83
42.19
50.73
60.58
69.99
77.57
82.13
82.50
77.64
67.14
51.69
33.03
13.35
-5.44
-22.05
-35.42
-44.16
-46.28
-39.86
-24.29
-1.17
25.74
51.87
73.66
89.73
100.66
107.82
112.00
112.97
110.10
103.35
93.90
83.78
74.93
68.21
63.34
59.32
55.23
50.55
45.09
38.63
30.84
21.60
11.33
1.17
-7.57
-14.16
-18.89
-22.89
-27.22
-31.93
-35.74
-36.58
-32.78
-24.16
-12.30
-0.00
10.01
16.04
17.86
16.29
12.31
6.50
-1.12
-10.66
-21.86
-33.77
-45.11
-54.67
-61.93
-67.06
-70.70
-73.41
-75.36
-76.23
-75.46
-72.63
-67.63
-60.79
-52.78
-44.37
-36.28
-29.13
-23.43
-19.56
-17.84
-18.39
-20.80
-24.04
-26.46
-26.24
-22.23
-14.43
-4.21
6.44
15.74
22.89
27.99
31.40
33.07
32.28
28.04
19.72
7.55
-7.45
-23.80
-40.12
-55.35
-68.76
-79.71
-87.51
-91.55
-91.39
-86.96
-78.74
-67.81
-55.93
-45.32
-38.33
-36.73
-41.22
-51.03
-64.17
-77.92
-89.51
-96.74
-98.26
-93.86
-84.46
-71.87
-58.45
-46.53
-37.96
-33.66
-33.58
-36.81
-41.79
-46.69
-49.71
-49.39
-44.97
-36.52
-24.96
-11.81
1.22
12.63
21.45
27.28
30.17
30.46
28.57
24.92
20.03
14.49
8.95
4.00
0.16
-2.15
-2.58
-0.93
2.78
8.01
13.73
18.60
21.46
21.88
20.40
18.34
17.20
18.02
21.04
25.73
31.20
36.67
41.65
45.96
49.62
52.74
55.34
57.22
57.86
56.34
51.63
42.91
30.02
13.69
-4.61
-23.15
-40.38
-55.13
-66.57
-73.89
-76.21
-72.79
-63.48
-49.06
-31.34
-12.72
4.48
18.82
30.11
39.29
47.81
56.81
66.46
75.81
83.15
86.84
85.96
80.72
72.18
61.68
50.30
38.56
26.62
14.60
2.80
-8.37
-18.73
-28.51
-38.33
-48.88
-60.46
-72.76
-84.89
-95.55
-103.37
-107.17
-106.20
-100.37
-90.40
-77.77
-64.34
-51.74
-40.83
-31.49
-22.96
-14.41
-5.60
3.05
10.70
16.68
20.92
24.09
27.24
31.38
36.91
43.46
49.87
54.50
55.70
52.28
43.97
31.53
16.69
1.60
-11.77
-22.21
-29.65
-34.99
-39.54
-44.38
-49.81
-55.13
-58.82
-59.06
-54.31
-43.87
-28.14
-8.56
12.74
33.61
52.27
67.61
79.04
86.27
89.11
87.48
81.65
72.59
61.95
51.77
43.82
39.02
37.12
36.94
36.87
35.64
32.78
28.82
25.04
22.98
23.76
27.62
33.71
40.30
45.32
47.05
44.58
38.03
28.52
17.84
8.11
1.38
-0.69
2.75
11.51
24.41
39.42
54.29
67.13
76.89
83.52
87.56
89.74
90.51
89.97
88.12
85.11
81.43
77.80
74.87
73.08
72.56
73.28
75.11
77.68
80.25
81.58
80.36
75.79
68.18
59.13
51.07
46.34
46.30
50.92
58.74
67.40
74.35
77.47
75.76
69.61
60.90
52.49
47.22
46.71
50.44
55.69
58.47
55.12
43.89
25.83
4.45
-15.61
-30.34
-37.62
-37.50
-31.48
-21.22
-7.72
8.71
27.74
48.33
68.45
85.68
97.98
104.37
104.88
100.16
90.82
77.20
59.31
36.94
9.80
-22.26
-58.83
-98.51
-138.72
-176.12
-207.53
-231.08
-246.85
-256.62
-262.64
-266.40
-267.83
-265.58
-257.93
-243.86
-223.59
-198.45
-170.30
-140.97
-111.93
-84.31
-59.08
-37.01
-18.65
-4.10
7.10
15.72
22.36
27.11
29.43
28.51
23.87
15.84
5.84
-3.87
-10.80
-12.90
-9.18
0.24
14.24
31.19
49.16
66.13
79.95
88.63
90.87
86.75
78.10
68.09
60.00
55.67
54.58
54.07
50.71
42.13
28.10
10.45
-8.32
-26.56
-44.31
-62.87
-83.40
-105.41
-126.24
-141.77
-147.98
-142.70
-126.43
-101.97
-73.24
-43.73
-15.56
10.49
34.17
54.96
71.71
83.09
88.52
88.70
85.48
80.94
76.24
70.92
63.20
51.09
33.86
12.96
-8.15
-25.05
-34.10
-33.69
-24.77
-10.44
5.07
17.60
23.94
22.46
13.38
-1.19
-17.74
-31.89
-39.64
-38.87
-30.54
-18.74
-9.60
-8.91
-19.74
-41.22
-69.01
-97.35
-121.48
-139.09
-150.38
-156.87
-159.83
-159.35
-154.57
-144.54
-129.15
-109.51
-87.71
-66.02
-46.21
-29.19
-15.13
-3.82
4.97
11.30
15.03
15.97
13.97
9.11
1.88
-6.76
-15.45
-22.75
-27.61
-29.81
-29.97
-29.24
-28.54
-28.02
-27.05
-24.73
-20.77
-16.09
-12.40
-11.08
-12.04
-13.29
-11.79
-5.00
7.71
24.58
42.38
57.72
68.20
72.67
70.89
63.15
50.39
34.51
18.56
6.08
-0.18
0.51
6.36
14.01
19.98
22.18
20.44
16.01
10.67
5.93
2.78
1.68
2.72
5.60
9.61
13.82
17.31
19.57
20.67
21.14
21.67
22.76
24.41
26.02
26.55
24.92
20.59
14.00
6.75
1.10
-0.84
1.98
9.10
18.80
28.88
37.69
44.63
50.11
55.06
60.28
65.99
71.87
77.29
81.73
85.03
87.40
89.10
90.14
90.02
87.92
83.37
76.89
70.30
66.25
67.07
73.41
83.51
93.60
99.20
96.88
85.55
66.63
43.27
18.98
-3.55
-22.85
-38.58
-50.92
-60.18
-66.72
-71.11
-74.28
-77.39
-81.34
-86.21
-91.00
-93.88
-92.86
-86.68
-75.38
-60.40
-44.00
-28.55
-15.74
-6.23
0.25
4.50
7.31
9.11
9.85
9.24
7.05
3.51
-0.67
-4.39
-6.57
-6.63
-4.69
-1.58
1.37
2.75
1.38
-3.37
-11.41
-21.68
-32.29
-40.65
-44.16
-40.95
-30.71
-14.90
3.52
20.98
34.32
41.52
41.94
36.05
24.82
9.21
-10.05
-32.25
-56.24
-79.94
-100.41
-114.45
-119.69
-115.60
-103.89
-88.04
-72.06
-59.03
-50.33
-45.71
-44.08
-44.39
-46.13
-49.06
-52.83
-56.60
-59.19
-59.59
-57.41
-53.03
-47.40
-41.55
-36.19
-31.53
-27.33
-23.15
-18.58
-13.45
-7.91
-2.41
2.43
6.05
8.08
8.55
7.81
6.37
4.62
2.55
-0.30
-4.65
-11.05
-19.43
-28.81
-37.39
-43.02
-43.88
-39.10
-29.01
-14.91
1.28
17.63
32.55
44.80
53.53
58.16
58.46
54.79
48.19
40.34
33.14
28.16
26.11
26.70
28.93
31.64
34.05
36.05
37.99
40.27
42.88
45.26
46.54
45.94
43.20
38.68
33.20
27.70
22.82
18.71
14.91
10.59
4.81
-3.16
-13.51
-25.84
-39.05
-51.51
-61.42
-67.11
-67.54
-62.52
-52.82
-39.85
-25.20
-10.08
5.08
20.41
36.08
51.49
64.73
72.72
71.99
59.94
36.17
2.94
-35.12
-72.32
-103.39
-124.62
-134.05
-131.02
-115.54
-88.10
-50.14
-4.60
43.99
90.56
131.27
164.70
191.95
215.07
235.19
251.27
260.53
260.08
248.85
228.62
203.49
178.13
156.02
138.44
124.78
113.66
104.03
95.78
89.38
85.19
82.88
81.44
79.61
76.47
71.60
64.70
55.04
41.18
21.66
-3.61
-32.03
-58.20
-75.58
-79.09
-67.55
-44.49
-16.84
7.92
24.60
31.64
30.45
23.52
12.77
-0.89
-16.69
-32.69
-45.44
-50.86
-46.27
-31.91
-11.15
11.07
30.60
45.76
57.56
68.38
80.02
92.64
104.96
115.23
122.17
125.18
123.95
118.10
107.27
91.97
74.17
57.19
44.55
38.14
36.93
37.12
33.64
22.41
1.84
-26.80
-60.35
-95.34
-129.21
-160.83
-190.20
-217.89
-244.40
-269.81
-293.72
-315.43
-333.78
-347.22
-353.97
-352.49
-342.21
-324.07
-300.76
-276.40
-255.58
-242.40
-239.58
-248.17
-267.50
-295.23
-327.42
-358.64
-382.61
-393.35
-386.81
-362.34
-322.90
-274.10
-222.07
-171.35
-123.96
-79.59
-36.64
6.56
51.04
97.07
144.27
191.40
236.09
274.97
304.22
320.92
324.29
316.35
301.39
284.44
269.67
259.40
254.40
254.47
259.08
267.58
278.67
290.07
298.73
301.71
297.38
286.27
270.60
253.06
235.56
218.72
202.17
185.58
169.20
153.85
140.58
129.26
118.37
105.72
89.80
70.69
50.40
31.93
18.03
11.11
11.73
18.70
29.89
43.32
57.63
72.55
87.91
103.04
117.84
131.07
140.72
144.83
142.47
133.73
120.43
104.83
89.07
76.42
68.38
64.16
61.33
57.28
50.27
41.14
31.95
14.47
-13.77
-50.14
-89.00
-125.70
-155.08
-178.64
-195.89
-205.15
-205.91
-197.76
-184.14
-172.19
-170.00
-182.85
-210.69
-246.57
-279.63
-298.81
-294.96
-264.72
-210.76
-140.25
-62.43
12.72
76.40
121.30
142.82
141.33
121.61
91.68
60.73
36.56
23.38
21.62
28.25
38.42
47.44
51.53
48.27
36.90
18.50
-4.47
-28.63
-50.87
-69.12
-82.52
-91.41
-97.07
-101.30
-106.00
-112.78
-122.21
-133.25
-143.19
-148.19
-144.59
-130.41
-106.23
-75.07
-41.34
-9.41
17.41
37.30
49.78
55.58
56.53
55.45
55.64
59.80
68.94
81.79
95.21
105.46
109.69
106.94
98.42
86.97
76.05
68.67
66.49
69.24
74.86
80.16
82.02
78.63
70.21
58.82
47.25
37.59
30.28
24.11
17.06
7.60
-4.54
-18.31
-32.07
-44.35
-54.60
-63.23
-71.38
-80.35
-91.21
-104.16
-118.15
-130.68
-138.13
-136.61
-123.25
-97.39
-61.07
-18.58
24.80
63.96
94.66
113.63
118.42
107.79
82.49
45.94
3.90
-36.93
-71.02
-95.69
-111.34
-120.38
-125.32
-127.37
-126.20
-120.76
-110.46
-95.57
-76.80
-54.21
-26.85
6.38
45.13
86.08
123.16
149.39
159.52
152.00
129.68
98.50
65.13
34.65
9.26
-11.04
-27.19
-39.66
-48.41
-53.35
-55.08
-55.32
-56.40
-60.51
-68.01
-77.03
-84.20
-87.23
-85.90
-81.87
-77.44
-74.09
-72.63
-72.33
-71.87
-70.06
-68.14
-68.35
-72.28
-79.61
-88.39
-97.67
-106.71
-115.13
-121.71
-126.69
-129.64
-128.77
-121.32
-105.48
-83.79
-60.66
-40.45
-24.32
-12.78
-4.04
5.23
18.25
47.00
92.26
143.67
176.76
185.18
169.63
136.14
89.90
36.36
-19.05
-72.75
-120.31
-156.28
-174.16
-171.90
-151.26
-116.90
-74.46
-29.42
12.33
47.08
73.89
95.26
113.33
130.21
147.48
165.91
184.70
200.68
210.53
212.20
206.25
193.88
177.04
158.10
139.71
124.30
113.36
107.63
106.89
110.08
114.68
117.90
117.85
114.44
109.19
104.11
100.63
98.55
95.94
89.35
75.33
51.70
18.51
-21.94
-65.80
-108.83
-147.51
-179.65
-204.31
-221.18
-229.95
-230.04
-221.02
-203.38
-179.01
-151.17
-123.68
-99.72
-80.82
-66.61
-55.29
-44.55
-32.44
-18.02
-1.44
16.13
32.85
46.72
56.13
60.28
59.24
53.74
44.96
34.29
23.30
13.59
6.64
3.47
4.14
7.44
11.27
13.32
11.79
5.92
-4.22
-18.25
-35.67
-56.16
-79.34
-104.20
-128.81
-150.71
-167.46
-177.81
-182.01
-181.04
-176.51
-169.90
-161.94
-152.29
-140.07
-124.36
-105.36
-84.40
-62.22
-39.06
-14.57
11.83
40.45
70.54
100.54
127.90
150.33
168.23
183.54
197.99
211.79
223.49
230.82
232.56
228.38
211.46
180.32
139.29
96.26
58.60
34.76
25.77
31.29
49.41
76.57
106.84
134.22
153.33
160.79
151.10
124.81
89.03
53.20
24.36
5.52
-4.33
-8.32
-9.70
-10.10
-8.92
-4.11
5.63
19.61
35.65
50.35
61.57
67.38
67.70
64.33
59.43
53.65
45.93
35.30
22.44
10.61
4.34
7.52
21.23
42.65
65.78
84.00
93.82
94.39
87.96
78.24
68.42
60.05
52.79
45.31
36.49
26.28
15.54
5.69
-2.13
-7.40
-10.29
-11.76
-13.48
-17.38
-24.85
-35.82
-48.12
-57.89
-60.98
-54.40
-37.29
-10.77
22.96
61.50
102.38
142.53
177.58
202.11
210.90
201.01
173.11
131.39
82.04
30.95
-17.78
-62.32
-102.60
-139.30
-173.26
-205.45
-237.11
-269.77
-304.72
-342.28
-381.12
-418.17
-449.25
-470.28
-478.70
-474.11
-458.06
-433.06
-401.26
-363.66
-320.12
-270.05
-213.00
-149.36
-80.63
-9.72
59.17
121.06
171.35
207.00
227.27
233.73
229.03
215.71
195.09
167.58
133.62
94.87
54.56
16.93
-14.28
-37.37
-53.51
-66.32
-80.29
-98.61
-121.41
-145.43
-165.23
-175.86
-175.09
-164.37
-147.83
-130.09
-113.84
-98.83
-82.38
-60.95
-31.92
5.41
49.54
97.16
143.73
184.76
216.83
238.11
248.13
247.43
237.17
219.26
196.43
171.51
147.73
127.88
113.04
102.05
92.13
80.54
66.32
50.85
35.81
23.75
17.22
18.15
27.06
42.65
61.90
80.44
93.49
94.97
81.96
55.91
21.64
-15.37
-51.50
-86.11
-120.87
-158.10
-201.85
-252.31
-304.99
-352.40
-387.51
-406.62
-410.39
-402.91
-371.98
-315.91
-243.19
-168.73
-104.64
-55.88
-22.23
-1.65
8.63
11.93
9.10
2.64
-4.21
-8.55
-9.70
-8.07
-5.05
-1.55
2.65
6.35
10.64
17.21
27.44
41.43
58.34
77.05
97.47
121.13
144.36
167.07
190.38
216.04
245.45
278.58
312.78
342.63
360.91
360.36
339.91
303.27
257.58
210.85
169.65
138.08
118.46
112.44
121.24
147.86
191.50
245.44
298.02
336.70
353.10
345.90
320.71
272.25
204.53
127.49
52.78
-11.57
-63.08
-102.80
-132.67
-154.62
-170.10
-180.36
-186.53
-189.58
-190.02
-187.58
-181.87
-173.54
-164.76
-157.02
-149.88
-141.18
-127.46
-105.25
-72.79
-31.61
12.98
53.11
80.86
91.80
85.63
65.22
35.11
-0.02
-36.59
-72.85
-108.72
-145.20
-183.03
-222.24
-261.99
-300.39
-334.38
-360.02
-373.41
-371.76
-354.40
-323.16
-281.68
-235.07
-188.87
-148.32
-117.69
-99.84
-95.49
-102.61
-116.48
-129.69
-135.01
-127.59
-106.32
-73.47
-32.98
11.25
56.27
99.37
138.29
168.64
184.99
183.50
165.01
135.72
105.14
82.22
72.24
78.47
100.93
138.76
191.95
260.79
343.49
433.61
519.49
586.51
624.50
627.97
598.06
542.45
473.33
403.96
344.86
301.23
253.77
190.90
110.36
20.84
-64.02
-133.23
-182.18
-212.05
-227.24
-233.09
-230.82
-220.55
-202.87
-179.60
-153.89
-129.76
-110.80
-99.02
-94.61
-93.71
-92.41
-88.24
-82.21
-76.33
-73.35
-76.88
-87.64
-103.57
-119.29
-130.74
-138.19
-146.10
-159.99
-184.38
-221.06
-265.83
-311.00
-346.35
-363.42
-358.32
-332.78
-292.47
-244.38
-193.73
-142.79
-92.11
-41.97
6.15
49.94
87.68
119.58
147.24
172.35
195.48
215.66
231.85
244.36
255.13
266.77
280.42
294.42
304.89
307.64
300.41
284.06
262.04
238.83
218.51
203.82
195.80
193.73
194.67
194.49
189.33
177.20
158.77
136.83
114.76
94.87
77.42
59.44
37.23
8.44
-26.29
-63.56
-98.36
-125.41
-140.46
-141.85
-133.55
-122.64
-116.57
-119.55
-131.46
-149.01
-167.81
-184.00
-195.49
-205.09
-217.04
-235.65
-262.90
-298.73
-341.88
-390.09
-439.83
-470.33
-465.56
-423.34
-359.64
-295.55
-242.86
-200.57
-160.70
-116.01
-64.92
-17.51
19.17
40.33
46.49
42.55
34.60
27.43
23.92
25.53
30.98
38.94
48.60
60.45
75.28
92.65
110.61
126.51
137.88
141.92
137.58
125.58
109.07
92.35
78.92
70.22
65.63
63.30
60.68
56.30
49.98
43.11
37.76
35.58
36.99
41.24
46.84
51.94
55.09
55.42
52.78
47.60
40.51
32.14
23.17
14.23
5.86
-1.60
-8.13
-13.94
-19.10
-23.36
-26.01
-26.15
-23.07
-16.63
-7.47
3.20
13.92
23.44
30.94
36.09
38.86
39.39
37.89
34.74
30.57
26.33
23.17
22.11
23.74
27.94
33.93
40.48
46.37
50.73
53.23
53.99
53.44
52.00
49.93
47.31
44.05
39.99
34.99
28.97
21.87
13.67
4.38
-5.87
-16.61
-27.03
-35.86
-41.72
-43.51
-40.76
-33.88
-24.06
-12.87
-1.83
7.98
16.07
22.37
27.09
30.43
32.53
33.43
33.16
31.82
29.53
26.52
23.08
19.58
16.40
13.89
12.23
11.33
10.83
10.17
8.84
6.51
3.22
-0.69
-4.78
-8.69
-12.30
-15.75
-19.39
-23.57
-28.60
-34.52
-41.11
-47.73
-53.43
-57.08
-57.62
-54.37
-47.29
-37.03
-24.79
-12.07
-0.21
9.82
17.56
22.98
26.37
28.09
28.49
27.90
26.60
24.87
23.01
21.26
19.79
18.62
17.71
16.99
16.44
16.07
15.88
15.76
15.46
14.59
12.81
9.92
5.99
1.39
-3.39
-7.92
-12.02
-15.90
-20.06
-25.09
-31.30
-38.46
-45.68
-51.59
-54.70
-53.90
-48.84
-40.01
-28.60
-16.06
-3.73
7.44
16.93
24.54
30.32
34.36
36.78
37.74
37.48
36.31
34.59
32.66
30.81
29.24
28.06
27.32
27.04
27.07
27.24
27.21
26.63
25.20
22.81
19.49
15.46
10.97
6.30
1.64
-2.91
-7.39
-12.04
-17.18
-23.04
-29.42
-35.56
-40.15
-41.76
-39.33
-32.63
-22.36
-9.93
3.02
15.10
25.47
33.77
40.01
44.29
46.69
47.28
46.19
43.66
40.09
35.95
31.66
27.56
23.87
20.70
18.12
16.11
14.60
13.42
12.39
11.30
10.02
8.44
6.51
4.19
1.50
-1.51
-4.75
-8.17
-11.87
-16.06
-20.99
-26.71
-32.82
-38.37
-42.04
-42.48
-38.83
-31.00
-19.76
-6.45
7.36
20.30
31.40
40.10
46.23
49.83
51.07
50.26
47.84
44.26
39.98
35.31
30.37
25.13
19.59
13.90
8.41
3.61
-0.09
-2.54
-3.99
-5.02
-6.31
-8.40
-11.44
-15.21
-19.14
-22.68
-25.37
-27.15
-28.33
-29.49
-31.32
-34.32
-38.57
-43.58
-48.42
-51.78
-52.47
-49.61
-42.96
-32.98
-20.73
-7.59
5.06
16.18
25.22
32.10
37.05
40.44
42.52
43.48
43.40
42.37
40.55
38.10
35.24
32.14
29.03
26.09
23.51
21.38
19.63
18.01
16.14
13.63
10.23
5.94
1.02
-4.06
-8.79
-12.76
-15.83
-18.16
-20.21
-22.59
-25.78
-29.93
-34.58
-38.71
-41.00
-40.27
-35.92
-28.21
-18.15
-7.14
3.45
12.68
20.04
25.45
28.99
30.81
31.07
30.07
28.17
25.78
23.34
21.16
19.48
18.33
17.64
17.25
17.05
16.92
16.77
16.46
15.81
14.63
12.77
10.13
6.75
2.90
-1.15
-5.19
-9.22
-13.43
-18.20
-23.98
-31.11
-39.48
-47.92
-54.72
-57.97
-56.07
-48.31
-35.14
-18.31
-0.46
15.56
28.29
37.22
42.69
45.75
47.66
49.40
51.27
52.72
52.76
51.68
49.75
47.10
43.84
40.57
38.96
41.82
52.33
72.43
103.00
140.74
178.64
208.34
223.51
222.38
207.94
186.23
154.10
113.27
68.85
27.84
-4.19
-25.07
-35.73
-39.02
-38.37
-37.23
-36.00
-34.00
-30.37
-24.95
-18.83
-13.98
-12.69
-16.70
-27.06
-41.63
-57.15
-70.41
-79.53
-84.87
-89.30
-98.37
-113.96
-138.96
-172.95
-211.45
-246.04
-266.11
-262.39
-230.88
-175.39
-107.20
-42.37
4.60
24.91
17.88
-9.67
-46.47
-80.95
-104.97
-115.86
-117.04
-115.22
-117.65
-129.04
-149.82
-175.94
-200.69
-217.39
-221.56
-212.29
-191.26
-161.19
-124.40
-82.14
-34.87
16.99
72.19
128.16
181.10
226.65
260.64
279.61
281.42
265.58
233.54
188.79
136.97
85.57
43.02
17.02
12.23
28.54
60.78
100.26
137.39
164.50
177.82
178.11
169.93
159.95
154.92
159.49
174.59
197.04
220.75
239.18
247.89
246.13
236.53
223.46
211.03
201.65
195.76
192.19
188.78
182.76
171.23
151.81
123.69
88.20
48.61
9.04
-27.01
-57.90
-84.10
-107.71
-131.45
-157.65
-187.18
-218.94
-249.82
-275.57
-292.24
-297.60
-292.17
-279.21
-263.91
-251.89
-247.53
-252.58
-265.47
-281.68
-295.11
-300.13
-293.58
-275.80
-250.18
-221.54
-194.02
-169.77
-148.89
-130.53
-114.13
-100.05
-89.12
-81.65
-76.70
-72.17
-65.72
-55.94
-43.17
-29.41
-17.51
-10.04
-8.26
-11.78
-18.50
-25.16
-27.95
-23.38
-9.16
14.93
46.76
82.07
115.58
142.37
159.16
164.87
160.48
148.25
130.89
111.03
90.98
72.78
57.98
47.41
40.72
36.38
32.09
25.64
15.82
3.10
-10.46
-21.83
-28.08
-27.40
-19.77
-7.13
7.14
19.16
25.59
24.47
15.58
0.35
-18.66
-38.27
-55.38
-67.41
-72.68
-70.68
-61.97
-47.99
-30.59
-11.48
8.05
27.16
45.18
61.40
74.99
85.22
91.79
94.99
95.60
94.52
92.27
88.65
82.69
73.07
58.85
40.12
18.35
-3.99
-24.15
-40.01
-50.72
-56.61
-58.82
-58.58
-56.82
-54.05
-50.65
-47.10
-44.11
-42.47
-42.71
-44.92
-48.68
-53.21
-57.52
-60.76
-62.43
-62.56
-61.74
-60.94
-61.05
-62.44
-64.81
-67.24
-68.69
-68.54
-66.96
-64.88
-63.60
-64.23
-67.21
-72.30
-78.68
-85.11
-90.05
-91.52
-87.25
-75.16
-54.19
-25.15
8.96
43.51
73.48
95.15
106.97
109.33
103.42
89.88
68.52
38.87
1.82
-39.23
-78.35
-108.42
-123.34
-119.92
-98.74
-63.63
-20.10
26.38
71.43
111.92
145.44
169.70
182.63
183.17
172.11
152.52
128.97
106.05
86.73
71.67
59.67
48.91
37.69
24.86
9.54
-8.86
-30.10
-52.23
-71.11
-81.34
-77.97
-58.61
-24.52
19.49
66.41
108.96
141.42
160.95
168.10
166.42
161.09
157.15
157.82
163.44
171.81
179.49
183.40
182.03
175.61
165.42
152.91
139.05
124.31
109.12
94.23
80.67
69.42
60.66
53.39
45.79
36.04
23.32
8.28
-7.48
-22.26
-35.27
-46.71
-57.33
-67.55
-76.90
-84.04
-87.23
-85.19
-77.95
-67.21
-56.43
-50.02
-51.96
-63.98
-84.08
-105.98
-120.28
-117.40
-91.20
-42.13
21.97
87.78
140.83
170.27
172.39
151.08
115.52
75.89
39.48
8.74
-18.22
-45.01
-73.98
-104.33
-132.00
-151.39
-158.00
-150.82
-133.15
-111.59
-93.32
-83.19
-81.92
-86.61
-92.80
-97.15
-98.98
-99.97
-102.35
-106.86
-111.99
-114.68
-112.24
-104.06
-92.18
-80.42
-72.61
-70.93
-74.93
-81.62
-86.52
-85.20
-74.87
-55.53
-30.12
-3.79
17.82
30.40
32.50
25.84
14.52
3.17
-4.82
-8.54
-9.43
-10.16
-13.02
-18.76
-26.48
-34.35
-40.83
-45.49
-49.07
-52.83
-57.57
-63.01
-67.87
-70.60
-70.17
-66.53
-60.57
-53.50
-46.33
-39.54
-33.18
-27.36
-22.56
-19.84
-20.50
-25.59
-35.42
-49.39
-66.17
-84.12
-101.79
-118.06
-132.17
-143.35
-150.57
-152.49
-147.66
-134.99
-114.09
-85.58
-50.94
-12.30
27.90
67.26
103.76
136.00
163.39
186.15
205.16
221.58
236.35
249.73
260.93
268.14
268.93
261.20
244.30
219.97
192.32
166.65
147.29
135.59
129.10
122.63
110.85
90.96
64.08
34.71
8.66
-9.44
-17.68
-17.05
-10.59
-2.18
4.45
6.53
2.70
-6.70
-19.68
-33.14
-43.90
-49.63
-49.46
-43.71
-33.23
-18.75
-0.64
20.56
43.45
65.39
83.10
93.83
96.51
92.22
83.31
71.65
57.31
38.54
13.29
-18.68
-54.59
-89.30
-117.80
-137.62
-149.97
-158.64
-167.43
-177.62
-187.02
-191.27
-186.46
-171.71
-149.92
-126.30
-105.55
-89.32
-75.60
-60.54
-41.50
-19.66
-0.45
8.41
0.69
-24.82
-62.69
-102.31
-131.78
-142.33
-131.21
-101.82
-61.17
-16.42
27.34
67.16
100.67
124.68
135.53
131.27
114.33
92.25
75.49
73.09
88.71
119.40
157.87
196.46
230.34
258.31
281.24
299.82
313.06
318.34
312.66
294.38
264.29
225.78
184.21
145.48
114.05
91.29
74.79
59.44
39.67
12.32
-21.79
-58.11
-90.45
-113.60
-125.18
-126.05
-119.33
-108.84
-97.92
-88.65
-81.60
-75.79
-68.99
-58.30
-41.32
-17.52
11.00
40.04
64.94
82.61
92.65
97.00
98.43
98.80
98.04
94.61
86.88
74.41
58.47
41.50
25.67
11.76
-1.12
-14.82
-30.95
-49.89
-70.76
-92.03
-112.54
-131.92
-150.49
-168.63
-186.39
-203.49
-219.93
-236.24
-253.16
-270.87
-288.13
-302.36
-310.60
-310.93
-303.52
-290.36
-273.94
-255.41
-233.71
-206.27
-170.73
-127.06
-78.45
-30.52
10.55
40.34
57.34
62.80
59.57
50.82
39.42
28.08
19.71
17.35
23.55
39.12
62.62
90.78
119.93
147.37
171.90
193.08
210.04
220.73
222.55
213.76
194.65
167.66
136.20
103.38
71.49
42.63
19.89
7.40
9.08
26.22
55.74
90.37
121.06
140.39
145.06
136.55
119.52
99.34
79.95
62.98
48.26
34.77
21.68
8.73
-3.80
-15.64
-26.59
-36.77
-46.18
-54.60
-61.46
-65.89
-66.93
-63.84
-56.40
-45.17
-31.77
-18.61
-8.37
-3.07
-3.32
-8.08
-15.23
-22.58
-28.63
-32.97
-36.02
-38.50
-41.09
-44.25
-48.31
-53.35
-59.04
-64.44
-68.12
-68.60
-65.02
-57.61
-47.73
-37.48
-29.06
-24.10
-23.25
-26.02
-30.94
-35.82
-38.35
-36.71
-30.15
-19.28
-5.90
7.51
18.76
26.81
32.25
36.90
42.52
49.44
55.60
56.67
47.45
24.09
-13.96
-63.14
-116.65
-166.90
-207.86
-236.55
-253.29
-260.53
-261.17
-257.37
-250.08
-239.42
-225.92
-210.53
-194.30
-178.02
-161.93
-145.29
-126.88
-105.00
-78.10
-46.58
-12.03
23.49
57.86
89.20
116.77
140.25
160.49
179.30
197.00
213.46
228.14
239.71
245.24
241.50
224.32
191.08
141.73
76.80
-0.08
-81.82
-159.22
-224.12
-270.90
-299.92
-315.43
-310.31
-284.09
-243.82
-200.37
-160.78
-131.29
-103.59
-70.52
-28.47
23.05
80.38
136.88
187.47
230.39
266.53
298.51
326.29
347.72
359.64
357.87
341.09
312.63
279.08
247.26
222.46
205.94
196.50
191.84
188.22
182.04
170.89
153.62
130.00
101.11
68.41
34.47
3.22
-20.87
-32.81
-27.89
-3.92
36.70
86.58
134.66
170.32
187.18
184.77
167.89
143.70
118.13
93.62
69.11
41.46
7.82
-32.89
-79.56
-129.47
-178.82
-223.36
-258.94
-282.39
-292.62
-291.49
-283.61
-275.14
-271.80
-277.05
-291.06
-310.98
-332.01
-348.83
-356.79
-352.74
-335.50
-305.98
-266.98
-222.66
-177.55
-135.31
-97.93
-65.44
-36.30
-8.14
21.43
54.37
91.96
134.58
181.36
230.02
277.18
319.26
353.80
380.28
399.93
414.44
424.25
427.79
422.04
404.26
373.80
332.55
284.02
231.71
178.13
125.01
74.44
29.66
-5.60
-28.81
-40.38
-43.82
-44.42
-47.18
-55.17
-69.42
-89.93
-116.67
-149.62
-187.62
-226.99
-261.31
-282.97
-286.34
-270.61
-240.65
-205.27
-173.35
-150.13
-135.60
-125.59
-114.76
-99.53
-79.47
-56.70
-34.33
-14.96
-0.33
8.34
9.97
3.89
-9.39
-27.76
-48.02
-67.17
-83.67
-97.76
-110.69
-123.63
-136.66
-148.52
-157.04
-159.57
-153.27
-135.19
-103.12
-57.10
-0.87
57.72
108.52
142.41
154.89
147.75
127.97
104.33
83.64
68.59
58.11
49.88
42.84
38.41
39.72
49.52
68.51
94.89
125.27
155.92
183.52
205.39
219.54
224.76
221.20
210.83
197.26
184.45
174.72
167.49
159.36
145.91
123.94
93.09
55.99
17.07
-18.83
-47.76
-66.80
-74.17
-69.32
-53.48
-30.31
-6.00
11.64
15.30
0.58
-32.41
-79.10
-132.10
-183.58
-227.37
-260.14
-281.28
-291.85
-293.55
-287.84
-275.92
-258.78
-237.41
-212.91
-186.62
-160.42
-136.87
-119.00
-109.61
-110.01
-119.15
-133.47
-147.88
-157.25
-157.72
-147.57
-127.20
-98.45
-63.93
-26.39
11.63
47.96
80.94
109.47
133.05
151.49
164.70
172.33
173.80
168.53
156.40
138.11
115.20
89.93
64.80
42.26
24.43
12.96
8.77
11.82
20.87
33.45
46.23
55.82
59.68
56.84
48.19
35.93
22.70
10.59
0.62
-7.14
-12.95
-16.72
-17.61
-14.34
-5.91
7.65
24.82
43.00
59.29
71.70
79.70
84.24
87.06
89.62
92.48
95.10
96.33
95.23
91.63
86.24
80.27
74.77
70.09
65.85
61.22
55.48
48.42
40.36
31.98
23.98
16.77
10.45
4.90
-0.14
-4.88
-9.47
-14.00
-18.55
-23.12
-27.55
-31.37
-33.73
-33.60
-30.14
-23.07
-12.90
-0.79
11.89
24.08
35.29
45.49
54.76
62.84
69.10
72.81
73.61
72.01
69.43
67.85
69.15
74.14
81.68
88.53
89.96
81.22
59.20
23.86
-21.58
-71.27
-118.55
-157.50
-184.00
-196.13
-194.02
-179.67
-156.43
-128.45
-99.46
-72.26
-48.13
-27.00
-8.20
8.62
22.77
32.83
36.98
34.85
26.89
14.50
-0.08
-13.82
-23.29
-25.78
-19.41
-4.20
19.95
51.55
87.91
125.90
162.55
195.62
222.55
242.11
253.45
259.75
264.56
270.55
278.57
287.48
295.18
298.38
296.86
292.40
292.32
302.62
324.87
355.16
386.09
410.88
424.80
429.76
403.94
337.99
236.10
115.35
-4.04
-108.92
-185.02
-240.90
-285.11
-323.34
-354.40
-376.51
-390.98
-399.93
-406.44
-412.41
-418.84
-422.36
-419.18
-404.27
-376.61
-339.76
-299.97
-263.47
-233.53
-211.42
-194.79
-181.34
-168.19
-154.25
-139.88
-125.94
-113.00
-100.66
-88.65
-75.73
-61.42
-45.35
-27.98
-10.23
7.14
23.66
39.26
53.48
65.82
75.26
80.93
82.41
80.15
75.39
69.60
63.91
58.63
53.61
48.44
42.89
37.12
31.66
27.02
23.45
20.81
18.75
16.78
14.56
11.73
7.85
2.37
-5.22
-14.94
-26.00
-36.65
-44.58
-47.64
-44.66
-35.93
-23.06
-8.44
5.68
17.76
27.08
33.44
36.82
37.09
34.17
28.25
20.03
10.73
1.76
-5.68
-10.93
-14.05
-15.63
-16.53
-17.42
-18.60
-19.95
-21.07
-21.66
-21.70
-21.55
-21.81
-23.12
-25.94
-30.37
-36.15
-42.53
-48.39
-52.27
-52.71
-48.65
-39.81
-26.91
-11.57
4.09
18.10
29.02
36.26
39.88
40.37
38.37
34.50
29.40
23.75
18.32
13.88
11.05
10.04
10.63
12.21
13.93
15.03
15.04
13.86
11.71
8.91
5.74
2.25
-1.76
-6.68
-12.93
-20.62
-29.32
-37.87
-44.56
-47.59
-45.67
-38.53
-27.11
-13.16
1.31
14.65
25.94
34.78
41.10
44.79
45.69
43.78
39.45
33.60
27.44
22.13
18.41
16.32
15.35
14.67
13.56
11.67
9.07
6.15
3.30
0.76
-1.59
-4.13
-7.41
-11.99
-18.17
-25.90
-34.55
-42.90
-49.34
-52.24
-50.45
-43.70
-32.76
-19.19
-4.89
8.47
19.74
28.38
34.27
37.47
38.14
36.54
33.13
28.59
23.72
19.24
15.55
12.70
10.34
8.03
5.42
2.44
-0.70
-3.62
-6.04
-7.91
-9.53
-11.44
-14.22
-18.31
-23.77
-30.26
-36.94
-42.59
-45.82
-45.39
-40.61
-31.62
-19.39
-5.48
8.44
21.02
31.48
39.59
45.40
49.00
50.43
49.80
47.37
43.82
40.00
36.79
34.68
33.62
33.06
32.28
30.71
28.23
25.15
21.95
19.01
16.37
13.68
10.40
6.08
0.48
-6.26
-13.66
-20.79
-26.44
-29.27
-28.11
-22.38
-12.24
1.33
16.89
32.96
48.37
62.34
74.27
83.51
89.15
90.30
86.40
77.67
65.21
50.79
36.32
23.27
12.27
3.07
-5.18
-13.43
-22.21
-31.42
-40.30
-47.77
-52.77
-54.73
-53.66
-50.18
-45.32
-40.26
-36.11
-33.63
-33.02
-33.85
-35.14
-35.63
-34.23
-30.37
-24.10
-16.04
-6.97
2.44
11.68
20.37
28.11
34.45
38.99
41.58
42.34
41.56
39.47
36.13
31.42
25.18
17.49
8.66
-0.77
-10.20
-19.06
-26.87
-33.27
-38.02
-41.12
-42.96
-44.29
-46.10
-49.37
-54.79
-62.55
-72.17
-82.56
-92.03
-98.61
-100.46
-96.38
-86.31
-71.48
-54.21
-37.31
-23.26
-13.66
-8.94
-8.50
-11.16
-15.51
-20.29
-24.50
-27.45
-28.71
-28.05
-25.44
-21.02
-15.15
-8.42
-1.60
4.49
9.22
12.41
14.37
15.72
17.11
18.81
20.48
21.36
20.47
17.01
10.49
0.83
-11.62
-25.92
-40.41
-52.74
-60.19
-60.44
-52.29
-36.23
-14.31
10.38
34.55
55.36
70.76
79.64
81.92
78.60
71.90
65.08
61.56
63.63
71.07
80.34
85.27
79.14
57.49
20.67
-25.60
-71.73
-107.48
-125.02
-120.83
-96.20
-56.25
-8.88
36.37
69.58
82.75
72.44
41.56
-1.38
-45.34
-80.95
-103.29
-111.95
-108.72
-94.90
-70.43
-35.35
7.82
53.02
92.06
117.91
127.88
124.41
113.49
101.58
92.93
88.86
88.83
92.36
100.40
115.61
141.22
178.79
226.31
277.61
323.82
356.43
370.59
366.93
350.94
329.88
309.18
290.09
269.90
244.56
211.77
172.95
132.73
96.26
66.37
41.78
17.94
-10.47
-46.69
-90.54
-139.11
-188.66
-236.22
-279.53
-315.98
-341.78
-352.72
-346.51
-325.14
-295.28
-265.63
-242.65
-227.26
-214.92
-199.32
-177.38
-152.55
-133.79
-130.81
-148.09
-181.34
-218.70
-246.43
-255.80
-247.40
-230.45
-216.99
-214.59
-221.63
-228.39
-223.36
-201.05
-166.25
-132.03
-112.38
-113.78
-131.06
-150.02
-155.31
-138.76
-103.40
-61.23
-26.06
-6.22
-0.69
-0.68
4.69
22.22
51.15
83.88
110.34
123.03
120.19
105.86
86.97
69.53
56.13
45.78
35.79
24.25
11.65
0.60
-5.70
-5.28
1.43
11.89
22.62
30.72
34.78
35.04
32.77
29.43
26.05
23.02
20.57
19.26
20.25
25.06
34.93
50.06
69.21
90.06
110.10
127.85
143.70
160.05
180.46
208.01
243.61
284.88
326.44
361.29
383.12
388.34
377.01
352.35
319.06
281.48
242.28
202.43
161.90
120.54
78.60
36.46
-5.86
-48.89
-93.22
-138.67
-183.49
-224.46
-257.69
-280.06
-290.44
-290.06
-281.70
-268.40
-252.26
-234.14
-214.35
-193.58
-173.38
-155.70
-141.69
-130.67
-120.16
-107.16
-90.08
-70.06
-50.69
-36.29
-29.42
-29.42
-32.54
-33.96
-30.27
-21.09
-8.97
2.16
9.18
11.12
9.23
5.85
3.00
1.47
0.76
-0.36
-3.07
-8.07
-15.34
-24.26
-33.81
-42.77
-49.96
-54.45
-55.63
-53.19
-47.05
-37.31
-24.36
-9.21
6.52
20.93
32.49
40.80
46.74
52.06
58.25
65.59
72.87
78.04
79.51
77.26
73.11
69.95
70.18
74.52
81.47
88.02
90.98
88.42
80.40
68.89
56.95
47.55
42.57
42.27
45.25
48.79
49.47
44.04
30.24
7.61
-22.03
-54.72
-85.09
-107.63
-118.33
-115.82
-101.80
-80.38
-56.60
-34.83
-17.55
-5.13
3.65
10.62
17.42
25.10
34.01
43.94
54.32
64.47
73.76
81.88
88.92
95.24
101.16
106.56
110.84
112.96
111.81
106.55
96.81
82.91
65.85
47.25
29.17
13.74
2.75
-2.84
-3.01
1.32
8.64
17.11
25.07
31.30
35.43
38.04
40.43
43.94
49.24
55.68
61.50
64.54
63.34
57.81
49.27
39.74
31.06
24.18
18.90
13.98
7.44
-3.05
-19.53
-42.91
-72.08
-103.57
-132.15
-152.38
-160.48
-155.77
-140.89
-120.77
-100.89
-85.70
-77.62
-76.83
-81.60
-88.99
-95.49
-97.87
-93.93
-82.96
-65.89
-44.81
-22.06
0.43
21.65
41.23
59.10
75.03
88.66
99.75
108.54
115.82
122.70
130.13
138.40
147.03
155.00
161.14
164.60
165.05
162.61
157.75
151.15
143.62
135.92
128.54
121.29
112.92
101.12
83.20
57.26
23.69
-13.95
-49.25
-74.59
-83.65
-73.64
-46.47
-8.26
32.56
67.64
90.82
99.20
93.17
75.55
50.53
22.63
-4.04
-26.24
-41.87
-50.17
-51.78
-48.59
-43.36
-39.05
-37.98
-41.11
-47.77
-56.04
-63.59
-68.61
-70.56
-70.17
-68.89
-68.12
-68.57
-70.07
-72.00
-73.95
-76.25
-80.04
-86.77
-97.57
-112.57
-130.80
-150.36
-168.65
-182.62
-188.83
-183.89
-165.25
-132.38
-87.66
-36.47
13.64
54.71
80.45
87.74
77.27
53.06
21.27
-11.35
-39.00
-57.88
-66.70
-66.51
-60.02
-50.69
-41.60
-34.79
-30.85
-29.03
-27.61
-24.59
-18.40
-8.56
4.00
17.02
27.29
31.48
27.29
14.45
-4.71
-25.73
-43.40
-53.72
-55.36
-50.04
-41.37
-32.75
-25.60
-18.72
-9.19
5.71
26.73
51.73
76.14
94.34
101.54
95.35
76.57
49.08
18.66
-8.72
-28.60
-39.20
-41.51
-38.44
-33.53
-29.62
-28.30
-29.94
-34.15
-40.25
-47.51
-55.22
-62.79
-69.98
-77.07
-84.74
-93.57
-103.37
-112.65
-118.72
-118.55
-110.08
-93.24
-70.19
-44.48
-19.61
2.32
21.13
38.04
54.60
71.52
88.13
102.41
111.71
113.55
106.56
91.08
69.40
45.49
24.06
9.24
3.38
6.29
15.43
26.92
36.84
42.34
42.23
36.86
27.63
16.43
5.11
-4.92
-12.84
-18.44
-21.98
-23.98
-24.87
-24.81
-23.60
-20.86
-16.42
-10.61
-4.47
0.59
3.43
3.89
3.26
3.95
8.64
19.17
35.54
55.72
76.05
92.22
100.37
98.06
84.84
62.42
34.31
5.00
-21.24
-41.37
-54.20
-60.40
-61.85
-60.79
-59.18
-58.33
-58.96
-61.34
-65.49
-71.30
-78.40
-86.06
-93.06
-97.91
-99.11
-95.66
-87.41
-75.19
-60.58
-45.60
-32.36
-22.81
-18.50
-20.04
-26.44
-34.65
-39.87
-36.85
-21.90
5.23
40.54
76.59
104.69
117.61
111.84
88.60
53.33
14.02
-21.18
-46.07
-57.82
-57.22
-47.82
-34.40
-21.42
-11.93
-7.32
-7.55
-11.72
-18.29
-25.27
-30.34
-31.11
-25.73
-13.57
4.24
24.95
44.79
60.28
69.38
72.16
70.49
67.00
64.00
62.90
64.45
69.49
79.18
94.43
114.27
134.70
148.85
149.26
131.22
95.44
48.55
0.64
-38.46
-62.74
-71.29
-67.56
-57.10
-45.38
-36.79
-34.31
-39.64
-53.03
-72.85
-95.29
-115.00
-126.65
-126.72
-114.92
-94.29
-70.19
-48.46
-33.53
-27.27
-28.84
-35.37
-43.08
-48.35
-48.46
-41.89
-28.48
-9.39
12.97
35.24
53.63
64.88
67.06
60.30
46.78
30.26
14.95
4.32
0.12
2.01
7.73
13.91
17.12
14.91
6.50
-7.02
-23.00
-37.92
-48.27
-51.32
-45.72
-31.63
-10.72
14.28
40.07
63.37
81.51
92.90
97.24
95.47
89.59
82.32
76.76
76.02
82.63
97.74
120.26
146.22
169.10
181.22
176.12
150.97
107.98
54.08
-1.14
-48.43
-81.49
-98.40
-101.18
-94.41
-83.33
-72.51
-65.17
-63.13
-66.88
-75.47
-86.60
-96.90
-102.86
-101.96
-93.69
-79.76
-63.27
-47.48
-34.52
-24.67
-16.58
-8.04
3.19
18.61
38.62
62.30
87.43
110.75
128.58
137.80
136.89
126.69
110.40
92.61
77.91
69.37
67.75
71.44
77.32
81.68
81.29
73.99
59.07
37.34
11.18
-15.69
-38.84
-54.17
-59.16
-53.81
-40.76
-24.44
-9.47
0.76
4.87
3.29
-2.42
-10.19
-17.85
-23.17
-24.03
-18.85
-7.13
10.41
32.06
55.93
80.81
106.52
133.47
161.63
189.55
214.06
231.00
236.59
228.86
208.30
177.51
139.94
98.48
54.67
9.00
-38.18
-85.47
-130.07
-168.32
-196.94
-214.16
-220.21
-216.97
-207.20
-193.68
-178.58
-163.20
-147.96
-132.67
-116.79
-99.82
-81.50
-61.96
-41.74
-21.90
-4.00
9.95
17.79
18.03
10.50
-3.00
-18.98
-33.13
-41.72
-42.74
-36.44
-24.99
-11.46
1.17
10.72
16.04
16.76
13.00
5.11
-6.32
-20.28
-35.13
-48.66
-58.41
-62.34
-59.46
-50.20
-36.26
-19.96
-3.43
12.06
26.51
41.03
57.35
77.14
101.27
129.19
158.59
185.44
204.62
211.10
201.54
175.61
136.60
90.70
45.24
6.60
-21.43
-38.01
-44.46
-43.06
-36.07
-25.53
-13.63
-3.09
2.96
1.70
-8.58
-27.90
-54.63
-85.79
-117.61
-146.02
-167.22
-178.40
-178.50
-168.45
-150.68
-128.03
-102.44
-74.24
-42.66
-7.21
30.79
67.47
96.98
113.31
112.47
94.21
62.36
23.86
-13.37
-42.61
-59.99
-64.91
-59.38
-46.75
-30.60
-13.89
1.09
12.62
19.40
20.70
16.72
8.77
-0.81
-9.18
-13.77
-13.17
-7.49
1.68
12.00
21.26
28.31
33.33
37.63
43.13
51.67
64.52
82.00
103.11
125.27
144.35
155.26
153.39
136.34
105.19
64.72
21.93
-16.24
-45.18
-63.68
-73.38
-77.23
-77.78
-76.43
-73.62
-69.73
-65.76
-63.32
-63.95
-68.38
-76.19
-86.04
-96.38
-105.88
-113.63
-118.75
-120.04
-115.97
-105.16
-87.00
-62.06
-31.96
1.22
35.45
68.86
99.30
123.74
138.29
139.07
123.89
93.99
54.56
13.71
-20.04
-40.58
-46.09
-39.19
-25.34
-10.50
0.85
6.65
6.89
2.61
-4.97
-14.93
-26.47
-38.68
-50.39
-60.38
-67.63
-71.54
-71.92
-68.72
-61.98
-51.71
-38.10
-21.64
-3.06
16.90
37.91
60.13
84.03
109.72
136.15
160.62
178.86
186.13
178.67
155.38
118.69
74.18
29.06
-9.96
-38.48
-55.13
-61.16
-59.19
-52.02
-41.94
-30.79
-20.41
-12.85
-10.17
-13.84
-24.08
-39.85
-59.18
-79.97
-100.46
-119.33
-135.35
-146.82
-151.57
-147.30
-132.43
-106.88
-72.43
-32.42
8.96
47.43
79.21
101.29
111.57
109.15
94.76
71.06
42.51
14.49
-7.89
-21.23
-24.59
-19.41
-8.82
3.36
13.42
18.25
15.62
4.67
-13.72
-36.66
-59.76
-78.28
-88.77
-90.43
-85.43
-78.15
-73.32
-74.05
-80.42
-89.28
-95.17
-92.14
-75.78
-44.65
-0.72
51.09
104.16
151.44
186.61
204.86
203.73
183.65
148.01
102.45
53.33
6.23
-34.95
-67.69
-89.67
-97.88
-89.20
-62.52
-21.32
25.43
65.36
87.20
85.58
63.36
30.16
-2.21
-24.75
-34.33
-33.45
-27.44
-21.07
-16.33
-12.27
-6.15
4.71
21.70
44.29
69.91
94.28
111.97
117.80
108.28
82.94
44.71
-0.68
-46.24
-85.44
-113.52
-128.09
-129.09
-118.41
-99.41
-76.35
-53.89
-36.31
-26.80
-26.73
-35.30
-49.77
-66.27
-80.76
-90.08
-92.57
-88.05
-77.63
-63.23
-47.05
-31.23
-17.48
-6.77
1.03
7.26
14.23
24.48
39.76
60.04
83.10
104.98
121.28
128.69
126.20
115.24
98.79
79.81
60.07
39.76
18.24
-4.90
-29.00
-52.61
-74.17
-92.92
-109.11
-123.47
-136.59
-148.38
-158.19
-165.17
-168.74
-168.76
-165.63
-160.33
-154.39
-149.73
-147.99
-149.62
-153.10
-155.02
-151.17
-138.28
-115.54
-85.16
-51.53
-19.39
8.04
30.12
48.52
65.85
83.97
102.78
120.31
133.74
141.10
142.28
139.13
134.33
129.99
126.51
122.69
116.71
107.52
95.88
84.19
75.46
71.83
73.48
78.53
83.89
86.66
85.35
80.35
73.56
67.72
65.44
68.82
79.00
96.08
118.67
143.71
166.57
181.94
185.43
175.16
152.67
122.42
90.19
61.09
38.20
22.44
13.35
10.04
11.48
16.16
21.49
23.76
19.14
5.16
-17.97
-47.24
-77.88
-105.19
-126.33
-141.06
-151.53
-161.02
-172.43
-186.99
-203.56
-218.75
-227.89
-226.35
-211.14
-181.97
-141.54
-94.89
-48.01
-6.13
27.43
51.79
68.08
78.51
85.34
90.18
93.85
96.59
98.59
100.17
101.60
102.86
103.19
101.26
95.78
86.33
73.89
60.80
49.90
43.30
41.26
41.90
41.87
37.98
28.76
15.54
2.20
-6.06
-4.53
9.52
36.01
72.07
112.73
151.81
182.95
200.71
201.77
185.72
155.52
116.87
76.78
41.74
16.18
1.80
-2.08
2.36
12.36
25.14
37.76
47.01
49.41
41.81
22.27
-8.98
-49.31
-94.25
-138.86
-179.13
-212.88
-239.63
-259.63
-272.59
-277.10
-270.90
-252.13
-220.66
-178.94
-131.72
-84.95
-44.23
-13.51
5.56
13.61
12.98
6.96
-0.91
-7.49
-10.48
-8.66
-1.92
8.79
21.67
34.40
44.53
50.04
49.90
44.44
35.35
25.18
16.53
11.10
9.29
10.18
12.08
13.44
13.49
12.73
12.90
16.51
26.24
44.17
71.10
105.96
145.54
184.60
216.59
235.03
235.26
215.98
180.01
133.71
85.32
42.55
10.67
-8.36
-15.44
-13.17
-4.73
6.63
17.57
24.67
24.64
15.17
-4.34
-32.43
-66.03
-101.44
-135.51
-166.24
-192.70
-214.54
-231.24
-241.77
-244.58
-238.00
-220.90
-193.31
-156.90
-115.19
-73.03
-35.73
-7.65
8.97
14.72
12.80
7.91
4.76
6.65
14.73
28.11
44.62
61.85
77.78
91.12
101.18
107.56
110.03
108.65
103.93
96.84
88.65
80.54
73.18
66.67
60.75
55.27
50.52
47.29
46.53
49.09
55.50
66.12
81.31
101.29
125.55
152.05
176.72
193.89
197.73
184.33
153.33
108.50
56.71
5.79
-37.68
-69.76
-89.43
-97.74
-96.82
-89.18
-77.46
-64.65
-54.13
-49.38
-53.28
-67.24
-90.67
-120.79
-153.31
-183.46
-207.21
-222.18
-227.97
-225.84
-217.85
-205.92
-191.11
-173.53
-152.69
-128.27
-100.73
-71.59
-43.17
-17.94
2.21
16.50
25.34
30.04
32.18
33.07
33.45
33.61
33.74
34.22
35.45
37.56
40.01
41.57
40.70
36.34
28.53
18.61
8.85
1.70
-0.78
2.57
11.94
26.62
44.90
64.13
81.04
92.62
97.39
96.47
93.62
93.88
101.19
116.18
135.28
151.76
158.46
150.68
128.17
95.00
57.79
23.29
-3.69
-20.95
-28.57
-28.00
-21.42
-11.42
-0.96
6.80
8.99
3.65
-9.59
-29.38
-52.92
-76.74
-97.58
-113.21
-122.74
-126.55
-125.78
-121.79
-115.70
-108.16
-99.38
-89.18
-77.23
-63.19
-46.90
-28.63
-9.24
9.86
27.04
40.89
50.70
56.34
58.07
56.09
50.57
42.00
31.77
22.30
16.36
15.93
21.01
29.16
36.19
37.83
31.51
17.65
-0.43
-17.72
-29.41
-32.66
-27.38
-15.93
-1.72
12.29
24.70
35.75
46.71
59.03
73.73
91.26
111.61
134.07
156.75
176.13
187.43
185.94
169.00
137.54
96.44
53.15
15.37
-11.28
-24.56
-25.58
-17.79
-5.73
6.06
13.67
14.05
5.36
-12.80
-39.08
-70.50
-102.96
-132.14
-154.60
-168.57
-174.21
-173.19
-167.84
-160.14
-150.97
-139.90
-125.65
-106.80
-82.83
-54.78
-25.39
1.33
21.23
31.42
31.42
23.56
12.36
3.01
-0.37
4.05
15.48
31.17
47.51
61.02
68.94
69.34
61.19
44.62
21.22
-5.69
-31.39
-50.72
-59.50
-55.89
-41.11
-19.11
4.76
25.41
39.52
46.30
47.34
45.80
45.40
49.37
59.66
76.38
97.48
118.87
135.19
141.03
132.66
109.45
74.35
33.30
-6.48
-38.45
-58.40
-65.25
-60.94
-49.66
-36.60
-26.89
-24.58
-31.89
-48.82
-73.11
-100.68
-126.56
-146.18
-156.49
-156.68
-148.16
-133.83
-117.02
-100.45
-85.56
-72.36
-59.80
-46.41
-31.13
-13.94
3.80
19.63
30.83
35.52
33.60
26.95
18.81
12.55
10.46
13.20
19.90
28.93
38.49
46.86
52.20
52.46
45.71
31.18
10.30
-12.95
-32.78
-43.36
-40.86
-24.73
2.19
34.89
67.80
96.27
117.27
129.57
133.70
131.92
127.87
125.82
129.15
138.70
151.78
162.73
164.95
153.81
128.81
94.04
56.51
23.39
-0.46
-13.63
-17.51
-14.71
-7.77
1.23
10.26
16.73
17.44
9.53
-8.17
-34.10
-63.97
-91.96
-112.71
-123.13
-123.44
-116.79
-107.93
-101.30
-99.40
-102.05
-106.75
-109.98
-108.69
-101.65
-89.76
-75.50
-61.94
-51.48
-45.14
-42.47
-41.87
-41.33
-39.10
-34.14
-26.24
-15.90
-4.11
7.81
18.34
25.87
28.86
26.13
17.41
3.81
-12.12
-26.76
-36.33
-38.00
-30.85
-16.10
3.33
23.71
41.70
55.26
64.17
70.01
75.63
84.20
98.15
118.12
142.30
166.52
185.10
192.35
184.29
159.97
121.99
75.88
28.75
-12.49
-42.71
-59.45
-63.14
-56.67
-44.62
-32.12
-23.81
-22.80
-30.03
-44.22
-62.41
-81.07
-97.16
-108.94
-116.14
-119.65
-120.85
-121.07
-121.15
-121.18
-120.45
-117.62
-111.15
-99.89
-83.73
-63.88
-42.66
-22.84
-6.79
4.21
10.33
12.97
14.30
16.64
21.81
30.65
42.78
56.67
69.88
79.59
83.23
79.09
66.91
48.12
25.65
3.41
-14.65
-25.48
-27.75
-22.09
-10.80
2.99
16.35
27.39
35.81
42.88
51.05
63.13
81.23
105.74
134.61
163.28
185.52
194.96
187.03
160.56
118.41
66.93
14.20
-32.10
-66.59
-87.10
-94.55
-92.11
-84.12
-75.11
-69.12
-69.04
-76.10
-89.52
-106.63
-123.63
-136.70
-143.24
-142.56
-135.85
-125.47
-113.97
-103.21
-93.98
-85.88
-77.66
-67.78
-55.05
-39.35
-21.97
-5.44
7.23
13.72
13.44
7.84
-0.17
-7.34
-11.27
-10.98
-6.75
0.53
9.91
20.49
31.10
39.98
44.84
43.59
35.29
20.91
3.26
-13.81
-26.54
-32.49
-30.99
-23.16
-11.32
1.92
14.49
25.34
34.65
43.45
53.14
64.90
79.43
96.68
115.77
134.88
151.30
161.65
162.66
152.06
129.62
97.49
59.86
21.82
-11.89
-37.97
-55.00
-63.28
-64.46
-60.99
-55.63
-50.98
-48.93
-50.17
-53.93
-58.19
-60.41
-58.38
-50.95
-38.33
-21.82
-3.28
15.37
32.32
45.97
55.04
59.03
58.67
56.02
53.93
54.96
59.99
67.69
74.71
77.08
71.89
58.61
39.43
18.52
0.46
-11.34
-15.72
-13.91
-8.84
-3.99
-1.98
-3.72
-8.08
-12.35
-13.16
-7.64
5.53
25.51
49.21
71.87
88.17
93.72
86.44
67.30
40.22
11.01
-14.25
-30.72
-35.84
-29.65
-14.37
6.25
27.53
44.46
52.38
48.03
30.70
2.96
-29.65
-60.11
-82.04
-91.67
-88.61
-75.37
-56.16
-35.36
-16.71
-2.98
3.98
3.26
-4.79
-18.49
-34.99
-51.04
-64.08
-73.11
-78.90
-83.46
-89.08
-97.22
-107.67
-118.44
-126.33
-128.00
-121.25
-105.97
-84.41
-60.81
-40.23
-27.16
-24.22
-31.34
-45.66
-62.28
-75.79
-81.78
-78.20
-65.76
-47.30
-26.72
-7.66
7.31
16.87
20.74
19.46
14.27
7.10
0.48
-2.94
-1.07
6.85
19.89
35.56
50.53
61.58
66.71
65.77
60.72
55.06
52.72
56.68
67.75
84.04
101.25
113.98
117.35
108.43
87.15
56.24
20.32
-15.33
-46.13
-69.02
-82.79
-87.86
-85.92
-79.47
-71.31
-64.14
-60.03
-60.07
-64.32
-71.88
-81.08
-89.60
-94.78
-94.11
-85.97
-70.48
-49.89
-28.05
-9.19
3.86
10.89
14.29
17.87
24.83
36.15
50.18
63.53
72.77
75.97
73.48
67.57
61.41
57.76
58.12
62.47
69.73
78.11
85.62
90.24
90.11
84.08
72.15
55.93
38.53
23.79
15.13
14.50
21.81
34.87
49.92
62.45
68.28
64.80
52.01
33.05
13.58
0.09
-2.33
8.03
28.84
54.52
78.27
94.19
98.88
91.91
75.30
52.67
28.21
5.90
-11.15
-21.09
-23.67
-20.12
-12.82
-4.74
1.12
2.25
-3.10
-15.67
-34.98
-59.32
-85.88
-111.33
-132.55
-147.45
-155.37
-156.98
-153.55
-146.17
-135.14
-119.95
-99.89
-74.80
-45.72
-14.97
14.32
38.91
56.26
65.07
65.52
59.19
48.72
37.28
27.90
22.87
23.21
28.61
37.57
47.95
57.46
64.24
67.08
65.57
59.98
51.12
40.15
28.28
16.59
5.90
-3.37
-11.01
-16.94
-20.99
-22.66
-20.96
-14.32
-0.95
20.48
49.83
84.43
118.92
146.08
158.82
152.72
127.85
89.14
44.88
3.93
-27.03
-45.07
-50.97
-47.75
-39.15
-28.50
-18.63
-12.22
-11.97
-20.06
-37.26
-62.31
-92.01
-122.11
-148.59
-168.66
-181.18
-186.44
-185.66
-180.29
-171.58
-160.14
-145.75
-127.45
-104.07
-75.10
-41.63
-6.68
25.27
49.62
63.29
65.90
59.95
49.82
40.10
33.99
32.51
34.63
38.10
40.31
38.99
32.49
20.10
2.34
-18.90
-40.63
-59.53
-73.13
-80.73
-83.51
-83.87
-84.18
-85.74
-88.40
-90.89
-91.65
-89.41
-83.45
-73.50
-59.41
-41.09
-18.52
7.82
36.51
64.90
89.30
105.65
110.66
103.11
84.50
58.88
31.69
8.22
-7.84
-14.98
-13.83
-6.71
2.84
10.52
11.89
3.56
-15.51
-43.00
-73.33
-99.26
-114.21
-114.31
-99.06
-70.66
-32.59
11.75
59.59
108.65
156.35
199.76
236.32
264.85
286.02
301.62
313.36
321.70
325.89
323.67
312.66
291.63
261.23
223.46
180.44
133.96
86.33
42.01
6.74
-13.58
-15.33
1.00
29.93
61.95
86.84
97.58
93.50
78.20
57.32
35.63
16.01
1.81
-3.57
1.42
10.22
19.16
25.78
30.18
30.53
24.49
10.15
-13.72
-46.83
-86.69
-127.67
-163.71
-189.90
-204.34
-208.02
-204.18
-196.95
-189.47
-182.81
-175.66
-167.08
-157.60
-149.38
-144.47
-143.51
-145.42
-148.24
-150.52
-151.91
-153.88
-158.27
-165.80
-174.88
-182.18
-184.52
-180.56
-171.40
-159.52
-147.63
-137.07
-127.37
-116.49
-101.99
-82.30
-57.30
-28.34
2.38
32.13
58.19
78.24
90.76
95.38
92.98
85.51
75.39
64.91
55.53
47.64
40.56
32.95
23.51
11.64
-1.96
-15.31
-25.58
-30.09
-27.36
-17.64
-3.03
13.24
27.83
38.33
44.03
46.00
46.72
49.21
56.01
68.28
85.28
104.37
121.62
132.86
134.83
126.14
107.65
82.22
53.85
26.69
4.15
-11.71
-20.29
-22.30
-19.54
-14.56
-10.27
-9.35
-13.66
-23.69
-38.49
-55.96
-73.45
-88.53
-99.57
-105.94
-108.00
-106.79
-103.65
-99.77
-95.78
-91.39
-85.45
-76.30
-62.60
-44.10
-22.12
0.67
21.01
36.20
44.94
47.50
45.34
40.29
34.01
27.62
21.72
16.31
10.78
3.99
-5.38
-17.93
-32.98
-48.35
-61.17
-69.19
-71.88
-70.66
-67.96
-65.72
-64.32
-62.48
-58.20
-50.04
-37.86
-22.76
-6.43
9.62
24.46
37.74
49.63
60.71
71.93
84.33
98.47
113.72
127.83
137.29
138.34
128.52
107.73
78.58
45.67
14.14
-11.72
-29.45
-38.62
-40.42
-37.03
-30.86
-24.12
-18.49
-14.94
-13.71
-14.33
-15.77
-16.68
-15.78
-12.28
-6.24
1.30
8.49
13.09
13.11
7.44
-3.53
-17.74
-31.73
-41.49
-43.64
-36.70
-21.70
-2.04
17.48
32.20
38.97
37.06
28.10
15.53
3.31
-5.27
-8.46
-6.52
-1.37
4.35
8.43
10.17
10.59
11.87
16.12
24.26
35.61
48.34
60.54
71.15
80.24
88.47
96.17
102.72
106.60
106.11
100.31
89.60
75.85
61.96
51.29
46.91
50.93
63.72
83.41
105.73
124.74
134.27
129.66
109.34
75.35
32.74
-12.03
-52.85
-85.24
-106.85
-117.13
-116.79
-107.25
-90.50
-69.15
-46.54
-26.37
-11.97
-5.32
-6.23
-12.30
-19.63
-24.18
-23.24
-16.37
-5.53
5.75
13.71
15.69
10.98
1.03
-10.98
-20.96
-24.97
-20.08
-5.19
18.48
47.13
74.79
94.45
99.97
88.22
60.45
22.33
-17.74
-51.26
-72.18
-78.22
-70.66
-53.02
-29.36
-3.25
22.59
45.87
64.61
77.21
83.06
82.94
79.06
74.34
71.51
72.16
76.26
82.32
88.24
92.13
93.08
91.32
87.92
84.27
81.71
81.32
83.83
89.50
97.54
105.75
110.47
107.41
93.09
66.42
29.51
-12.75
-54.04
-88.51
-112.19
-123.49
-122.90
-112.23
-94.03
-71.28
-47.20
-25.14
-8.07
1.96
4.25
-0.64
-11.24
-25.83
-42.89
-61.42
-80.77
-100.43
-119.70
-137.51
-152.42
-162.80
-167.13
-164.37
-154.34
-137.92
-117.01
-94.13
-71.82
-52.08
-35.90
-23.31
-13.68
-6.20
-0.21
4.71
8.94
13.09
18.04
24.69
33.59
44.65
57.11
69.96
82.25
93.43
103.31
111.85
119.00
124.63
128.64
130.94
131.28
129.03
123.10
112.26
95.81
74.28
49.85
26.23
7.94
-0.87
2.33
17.43
41.21
67.68
89.36
99.14
92.51
69.03
32.63
-9.54
-49.25
-79.50
-95.98
-97.46
-85.28
-62.47
-33.07
-1.60
27.30
49.50
62.19
64.46
57.33
43.14
24.56
3.74
-17.96
-39.71
-60.84
-80.74
-98.92
-115.07
-128.97
-139.89
-146.21
-145.62
-136.05
-117.12
-91.01
-62.31
-36.52
-18.03
-8.43
-6.34
-8.50
-11.66
-14.25
-16.77
-20.94
-28.12
-38.03
-48.61
-56.89
-60.42
-58.44
-51.92
-42.76
-32.64
-22.36
-12.04
-2.01
6.43
11.08
9.94
2.47
-9.61
-22.84
-33.25
-37.85
-35.26
-25.40
-8.65
14.71
44.02
77.24
110.01
135.91
148.22
142.41
118.36
80.83
37.97
-1.56
-31.55
-49.92
-58.55
-61.44
-62.54
-64.14
-66.56
-69.04
-70.86
-72.06
-73.34
-75.45
-78.62
-82.40
-86.03
-88.86
-90.76
-91.98
-92.83
-93.50
-93.84
-93.28
-90.88
-85.37
-75.58
-60.95
-42.23
-21.69
-2.66
11.59
19.16
20.31
17.19
12.59
8.59
5.73
3.15
-0.62
-6.80
-16.02
-28.22
-42.89
-58.94
-74.59
-87.30
-94.34
-93.69
-85.05
-70.16
-52.20
-34.46
-19.07
-6.32
4.95
16.37
28.95
42.60
56.24
68.41
77.98
84.69
89.22
93.04
97.97
105.64
116.93
131.52
147.58
161.95
170.90
171.25
161.64
143.25
119.75
96.20
77.44
66.56
64.17
68.49
76.16
83.39
86.88
84.53
75.70
61.25
43.30
24.70
8.24
-4.18
-12.25
-17.39
-22.23
-29.41
-40.36
-54.41
-69.00
-80.85
-87.49
-88.59
-86.11
-83.31
-83.04
-86.13
-91.00
-94.47
-93.54
-87.12
-76.69
-65.64
-57.69
-55.31
-58.72
-65.90
-73.01
-75.37
-68.42
-48.86
-15.76
28.47
77.76
123.18
155.15
166.49
155.40
126.81
91.27
61.40
47.10
51.77
71.18
95.31
112.80
115.52
101.58
75.32
44.58
17.02
-2.74
-13.96
-18.84
-20.76
-23.19
-29.33
-42.11
-63.73
-94.55
-131.85
-169.55
-199.73
-215.66
-214.71
-199.48
-176.51
-152.83
-132.71
-116.13
-100.00
-81.10
-58.58
-34.69
-13.37
2.25
11.61
16.77
20.78
25.75
31.69
36.87
39.38
38.65
36.06
34.20
35.52
41.13
50.51
62.04
73.82
84.16
91.58
94.45
90.88
79.04
57.85
27.69
-9.43
-50.26
-91.07
-128.41
-159.32
-181.12
-191.18
-187.07
-167.26
-132.26
-85.45
-32.84
18.19
61.12
92.43
112.63
125.82
137.88
154.10
177.34
207.14
239.96
270.41
292.85
302.92
298.84
281.98
255.96
225.23
193.38
162.19
131.91
102.17
72.91
44.54
17.53
-8.22
-33.24
-57.90
-81.52
-102.03
-116.48
-122.31
-118.95
-108.85
-97.32
-91.19
-96.49
-115.89
-147.12
-183.29
-215.28
-235.46
-240.60
-232.40
-215.60
-194.50
-170.33
-140.76
-102.09
-52.63
4.87
62.97
111.75
142.23
149.60
134.77
103.80
65.67
29.50
2.38
-11.65
-11.53
1.60
25.32
56.45
91.43
126.68
159.18
186.92
209.14
225.92
237.49
244.00
245.55
242.38
235.12
224.40
210.30
192.10
168.81
140.16
107.51
73.92
42.96
17.15
-3.31
-20.55
-37.67
-56.80
-77.75
-97.72
-112.60
-118.71
-114.28
-99.98
-78.47
-53.37
-28.18
-5.44
13.57
28.83
41.22
51.90
61.44
69.31
73.66
71.82
61.38
41.50
13.85
-17.56
-47.48
-71.30
-86.60
-93.69
-94.91
-92.96
-89.31
-83.73
-75.06
-62.73
-48.13
-34.51
-25.56
-23.13
-25.88
-29.53
-29.10
-21.70
-8.53
5.27
12.81
8.75
-7.98
-33.57
-60.83
-82.36
-93.55
-94.23
-88.40
-82.45
-82.73
-93.66
-116.59
-149.57
-187.87
-224.95
-253.94
-269.11
-267.15
-248.03
-215.01
-173.85
-131.24
-93.25
-63.96
-45.00
-35.99
-35.37
-41.52
-53.24
-69.76
-90.12
-112.56
-134.49
-153.05
-166.11
-173.12
-175.07
-173.75
-170.54
-165.67
-158.35
-147.38
-132.15
-113.08
-91.50
-68.94
-46.26
-23.47
-0.12
23.78
47.16
67.87
83.47
92.49
95.27
94.03
91.85
91.20
92.86
95.84
98.45
99.84
100.98
104.56
113.68
130.11
153.32
180.69
208.76
234.54
256.23
272.92
283.75
287.40
282.15
266.82
241.57
207.91
168.22
125.09
81.39
40.86
8.68
-9.23
-8.28
11.99
46.05
82.88
109.10
113.56
91.68
47.67
-6.42
-54.52
-82.33
-82.28
-56.11
-13.65
31.57
67.51
87.54
91.25
82.31
65.29
43.51
18.86
-7.13
-32.22
-53.77
-70.13
-81.43
-89.00
-93.54
-93.67
-86.10
-67.68
-37.77
0.50
41.05
76.95
102.87
116.19
116.67
105.34
83.42
51.84
11.50
-36.09
-88.20
-140.44
-186.97
-221.25
-237.38
-231.43
-202.45
-152.66
-86.94
-11.90
65.00
136.52
196.68
241.48
269.35
280.87
278.05
263.45
239.32
207.65
170.67
131.64
94.99
65.11
44.77
33.88
29.71
28.67
28.50
29.31
32.83
40.32
50.42
58.88
60.30
51.05
31.55
6.32
-18.46
-38.20
-51.99
-62.46
-73.66
-88.62
-108.09
-130.97
-155.69
-181.57
-209.02
-239.03
-272.16
-307.62
-342.93
-374.09
-396.15
-404.09
-394.00
-364.24
-316.31
-255.04
-187.82
-123.06
-68.04
-27.08
-0.64
14.22
22.20
27.69
33.26
39.49
45.76
51.51
57.19
64.58
76.30
94.94
122.18
158.02
200.39
244.94
285.70
316.21
331.17
328.08
307.84
274.14
231.79
185.06
136.62
87.49
37.66
-13.38
-66.20
-121.16
-177.72
-233.75
-285.15
-326.44
-352.14
-358.63
-345.59
-316.40
-277.20
-235.05
-196.01
-164.04
-140.69
-125.67
-117.35
-113.30
-110.31
-104.68
-92.74
-71.83
-41.05
-1.49
44.31
93.47
143.68
193.37
240.81
283.16
316.18
335.08
336.40
319.60
287.47
245.12
198.19
151.02
106.09
64.56
27.41
-3.83
-27.19
-41.26
-46.04
-43.29
-35.91
-26.78
-17.62
-8.60
1.54
14.76
32.73
55.88
82.78
110.29
134.08
150.11
156.11
152.66
142.89
130.87
119.39
108.50
95.83
78.49
55.40
28.38
1.34
-21.96
-40.14
-54.86
-69.56
-87.33
-109.03
-132.99
-156.11
-175.55
-189.62
-197.64
-199.42
-194.89
-184.66
-170.80
-157.14
-148.53
-149.30
-161.66
-184.83
-215.51
-248.78
-279.43
-302.63
-314.37
-311.63
-292.61
-257.27
-207.65
-148.00
-84.13
-22.60
30.33
69.55
91.81
96.41
85.40
63.40
36.64
11.45
-7.44
-18.04
-21.38
-20.64
-19.59
-21.06
-26.00
-33.66
-42.33
-50.50
-57.46
-63.24
-67.99
-71.27
-71.98
-68.74
-60.96
-49.43
-36.17
-23.53
-13.09
-5.19
0.74
5.19
7.87
7.82
4.38
-1.75
-8.16
-11.39
-8.47
1.89
18.80
39.75
61.65
81.63
97.35
106.95
108.92
102.30
87.27
65.77
41.52
19.07
2.19
-7.70
-12.07
-14.22
-17.20
-21.60
-24.47
-20.19
-3.24
28.60
72.00
118.13
155.33
172.91
164.72
130.76
76.62
11.34
-55.13
-114.06
-159.17
-187.03
-196.96
-190.74
-172.14
-146.04
-117.38
-89.79
-64.65
-40.86
-15.89
12.46
43.93
74.80
98.62
108.80
101.89
79.72
49.42
20.53
0.92
-6.53
-4.53
0.88
4.14
3.15
-0.24
-2.26
-0.17
5.77
12.85
18.06
19.97
19.28
17.53
15.11
10.37
0.39
-16.80
-40.23
-65.45
-86.17
-96.93
-95.32
-82.65
-62.60
-39.27
-15.81
6.07
25.73
42.90
57.58
70.29
82.43
96.32
113.78
134.74
156.75
176.16
189.96
197.52
200.07
199.06
195.63
189.33
178.96
164.66
149.38
138.06
135.88
144.28
159.31
174.66
183.79
183.40
175.23
165.11
159.27
162.26
173.75
189.00
203.93
216.01
224.88
231.49
236.72
239.58
239.18
234.58
213.78
171.89
112.61
46.54
-15.57
-63.42
-101.57
-134.67
-164.19
-189.02
-205.28
-210.10
-204.82
-195.03
-188.24
-191.07
-204.63
-225.51
-247.58
-262.62
-264.35
-250.61
-224.10
-191.52
-162.54
-145.55
-145.90
-163.71
-191.74
-218.10
-230.75
-222.00
-191.27
-144.81
-91.27
-38.38
9.71
53.01
93.04
129.72
160.20
180.40
187.68
183.85
174.68
167.27
166.20
170.65
174.74
171.06
155.56
130.27
102.57
80.70
68.89
65.05
62.30
53.63
36.47
14.28
-5.31
-14.57
-9.40
9.34
36.86
66.86
93.72
113.57
124.35
125.30
116.95
100.85
79.62
56.78
36.26
21.87
16.30
20.00
30.11
40.37
42.64
29.80
-0.80
-45.33
-93.92
-133.84
-153.94
-148.65
-119.86
-76.15
-29.75
7.20
26.00
23.34
1.48
-33.17
-72.39
-108.39
-135.31
-149.64
-149.99
-136.81
-112.22
-80.15
-45.96
-15.32
7.34
20.34
25.11
25.43
25.68
29.30
37.87
51.24
67.95
85.83
102.11
113.59
117.20
111.05
95.51
73.81
51.71
36.15
32.92
44.37
68.08
97.12
122.01
133.88
127.33
101.89
61.39
11.78
-41.13
-92.96
-140.52
-180.78
-210.25
-225.64
-225.39
-211.10
-187.61
-161.57
-139.14
-123.86
-116.14
-113.69
-112.88
-110.23
-103.33
-91.30
-74.87
-56.18
-38.17
-23.79
-14.93
-11.64
-11.92
-12.12
-8.26
2.20
19.01
38.53
54.64
60.98
53.65
33.18
4.66
-23.96
-44.95
-53.48
-49.03
-34.72
-15.24
5.36
24.90
42.97
59.93
76.00
90.91
104.10
115.04
123.20
127.84
127.92
122.41
111.09
95.11
77.07
60.13
46.69
37.22
30.09
22.56
12.45
-0.43
-14.09
-25.37
-31.72
-32.80
-30.87
-29.79
-33.01
-41.64
-53.42
-63.30
-65.38
-55.35
-32.29
0.87
38.48
74.29
103.63
124.57
137.50
143.67
143.80
137.89
126.19
110.54
94.81
83.65
80.25
84.53
92.92
100.09
101.38
94.65
80.39
60.65
37.62
12.78
-12.85
-38.15
-61.60
-81.79
-98.09
-111.15
-122.66
-134.58
-148.31
-163.95
-180.11
-194.14
-202.70
-202.37
-190.43
-165.38
-127.56
-79.41
-25.54
27.69
73.33
105.40
120.71
119.81
107.05
89.08
72.55
62.13
59.16
61.63
65.34
65.51
58.34
41.76
15.78
-17.60
-54.69
-90.56
-120.01
-138.89
-145.49
-141.46
-131.93
-124.26
-125.88
-141.61
-171.76
-211.62
-252.98
-286.96
-307.04
-311.02
-300.97
-281.44
-256.88
-229.71
-199.40
-163.59
-120.30
-70.18
-17.54
30.31
65.61
83.06
81.96
66.55
44.43
23.92
11.56
10.61
20.94
39.79
62.88
85.52
103.45
113.44
113.67
103.72
84.46
57.69
25.98
-7.21
-37.45
-59.95
-70.62
-67.39
-51.18
-25.69
3.80
32.03
55.21
71.74
82.08
87.93
91.26
93.27
94.12
93.13
89.59
83.57
76.12
68.75
62.47
57.33
52.62
47.85
43.62
41.42
42.43
45.93
48.61
45.52
32.45
8.31
-23.78
-57.53
-86.07
-104.64
-111.98
-109.90
-101.53
-89.38
-74.51
-56.81
-36.13
-13.25
9.96
31.11
48.23
60.44
67.88
71.21
71.02
67.56
60.78
50.69
37.58
22.13
5.50
-10.56
-23.64
-30.92
-29.97
-19.73
-1.40
21.45
43.73
60.23
67.27
63.55
50.29
30.49
7.73
-14.87
-35.29
-52.76
-67.23
-78.66
-86.47
-89.33
-85.70
-74.64
-56.63
-33.74
-9.03
14.55
35.18
52.54
67.36
80.53
92.16
101.35
106.47
106.02
99.26
86.68
69.96
51.66
34.80
22.24
16.05
16.80
23.25
32.47
40.59
43.94
40.23
29.04
11.80
-8.98
-30.52
-50.58
-67.72
-81.20
-90.69
-95.86
-96.30
-91.68
-82.12
-68.53
-52.46
-35.77
-19.87
-5.36
8.06
21.00
33.60
44.97
53.33
56.72
54.02
45.83
34.39
23.04
15.15
13.19
18.14
29.20
43.86
58.33
68.32
70.10
61.72
43.83
19.64
-6.04
-28.49
-44.57
-53.63
-57.23
-57.98
-58.21
-58.94
-59.74
-59.16
-55.55
-47.76
-35.59
-19.75
-1.63
17.20
35.45
52.25
67.20
79.98
90.12
96.80
99.19
96.96
90.82
82.61
74.77
69.46
67.63
68.72
71.05
72.67
72.11
68.63
61.94
51.87
38.25
21.17
1.65
-18.22
-35.66
-48.19
-54.64
-55.64
-53.23
-49.82
-47.10
-45.43
-43.98
-41.41
-36.74
-29.71
-20.88
-11.19
-1.62
7.09
14.44
20.14
23.97
25.77
25.39
22.83
18.24
11.96
4.59
-3.04
-9.92
-14.87
-16.68
-14.42
-7.73
2.75
15.25
26.98
34.78
35.94
29.03
14.33
-6.26
-29.88
-53.32
-73.57
-88.06
-94.76
-92.36
-80.64
-60.79
-35.42
-8.19
17.21
38.00
53.00
62.62
68.20
71.19
72.41
71.92
69.42
64.82
58.56
51.72
45.57
41.11
38.72
38.00
37.95
37.30
34.76
29.44
21.16
10.72
-0.02
-8.55
-12.53
-10.84
-4.37
3.94
9.90
9.66
1.26
-14.41
-33.75
-51.63
-63.20
-65.31
-57.34
-40.98
-19.35
4.00
25.98
44.30
57.56
65.03
66.66
62.98
55.18
44.94
34.16
24.54
17.29
12.91
11.27
11.73
13.36
15.14
16.03
15.07
11.44
4.65
-5.21
-17.26
-29.63
-39.87
-45.51
-45.13
-39.23
-30.34
-22.34
-18.81
-21.38
-28.91
-37.90
-44.10
-44.31
-37.70
-25.74
-11.23
3.06
15.37
25.11
32.36
37.25
39.64
39.33
36.46
31.78
26.56
22.10
19.19
17.73
16.80
15.19
12.10
7.63
2.81
-0.87
-2.19
-0.85
2.39
5.96
8.09
7.41
3.30
-4.05
-13.67
-24.05
-33.33
-39.67
-41.75
-39.21
-32.87
-24.41
-15.48
-6.73
2.67
14.50
30.21
49.40
69.14
84.66
91.20
86.06
69.87
46.35
20.82
-1.75
-18.26
-27.79
-31.20
-30.14
-26.32
-21.17
-15.89
-11.55
-9.11
-9.28
-12.34
-18.07
-25.92
-35.19
-45.26
-55.49
-65.08
-72.80
-76.98
-75.93
-68.62
-55.36
-38.02
-19.76
-4.11
6.01
9.26
6.34
-0.04
-5.89
-7.20
-1.20
12.54
31.90
52.75
70.28
80.39
80.74
71.18
53.51
30.86
6.96
-14.50
-30.47
-39.04
-39.89
-34.33
-24.94
-14.92
-7.15
-3.64
-5.09
-10.99
-19.88
-29.76
-38.51
-44.25
-45.60
-41.92
-33.45
-21.32
-7.36
6.34
18.04
26.85
32.92
37.13
40.32
42.65
43.22
40.62
33.92
23.61
12.05
2.66
-1.37
1.42
10.06
21.43
31.49
36.72
35.20
26.93
13.57
-2.24
-17.59
-29.89
-37.37
-39.45
-36.84
-31.53
-26.22
-23.69
-25.90
-33.28
-44.46
-56.62
-66.47
-71.32
-70.09
-63.47
-53.33
-41.72
-29.99
-18.57
-7.33
3.66
13.64
21.28
25.15
24.27
18.52
8.66
-3.53
-15.09
-22.02
-19.95
-5.84
20.11
53.20
84.91
105.56
108.06
90.91
58.81
20.66
-14.11
-38.97
-51.82
-54.42
-50.24
-42.52
-33.29
-23.69
-14.85
-8.56
-6.94
-11.55
-22.07
-35.89
-48.67
-55.83
-54.49
-44.66
-29.31
-13.05
-0.04
7.64
10.81
12.33
15.54
22.45
32.88
44.57
54.32
59.41
58.58
52.38
42.70
32.02
22.57
15.76
12.01
10.99
11.84
13.63
15.53
17.04
17.91
18.10
17.60
16.30
13.98
10.44
5.57
-0.56
-7.81
-16.09
-25.47
-36.03
-47.52
-58.99
-68.71
-74.45
-74.25
-67.16
-53.75
-36.09
-17.02
0.58
14.60
24.07
29.07
30.43
29.33
26.91
24.01
21.09
18.25
15.32
12.16
8.79
5.48
2.72
0.99
0.58
1.41
2.97
4.44
4.91
3.63
0.24
-5.18
-12.07
-19.56
-26.75
-32.97
-37.95
-42.03
-45.93
-50.45
-55.99
-62.15
-67.64
-70.53
-68.87
-61.47
-48.41
-31.14
-11.99
6.53
22.48
34.84
43.43
48.59
50.80
50.53
48.24
44.59
40.26
35.80
31.36
26.74
21.76
16.70
12.60
10.90
12.76
18.33
26.50
35.23
42.40
46.63
47.64
46.11
43.13
39.83
37.26
36.45
38.14
42.29
47.49
50.70
47.92
35.51
11.74
-21.99
-61.10
-98.90
-128.49
-144.75
-145.71
-132.94
-110.71
-84.60
-59.85
-40.14
-27.19
-21.05
-20.67
-24.61
-31.10
-38.05
-43.09
-44.09
-39.86
-30.96
-19.69
-9.35
-2.97
-2.02
-6.05
-13.14
-21.01
-28.03
-33.68
-38.37
-42.81
-47.60
-53.06
-59.35
-66.54
-74.44
-82.23
-88.40
-90.95
-88.12
-79.23
-65.05
-47.66
-29.47
-12.35
2.92
16.58
29.20
40.99
51.52
59.86
65.15
67.01
65.56
61.31
54.82
46.62
37.34
27.86
19.27
12.54
8.15
5.74
4.17
2.00
-1.99
-8.32
-16.60
-25.75
-34.33
-41.08
-45.29
-47.08
-47.38
-47.68
-49.36
-53.07
-58.19
-62.81
-64.37
-60.64
-50.65
-35.16
-16.27
3.36
21.51
36.94
49.32
58.77
65.33
68.73
68.69
65.19
58.85
50.86
42.71
35.78
30.99
28.55
28.01
28.40
28.49
27.23
24.00
18.86
12.44
5.69
-0.54
-5.86
-10.40
-14.82
-19.96
-26.59
-35.12
-45.47
-56.85
-67.77
-76.24
-80.13
-77.71
-68.24
-52.31
-31.78
-9.34
12.24
30.80
45.18
55.18
61.23
63.92
63.78
61.22
56.80
51.32
45.84
41.34
38.38
36.89
36.17
35.27
33.36
30.11
25.71
20.69
15.60
10.83
6.45
2.33
-1.77
-6.11
-10.92
-16.51
-23.12
-30.71
-38.64
-45.54
-49.47
-48.47
-41.29
-27.97
-9.91
10.57
30.93
49.12
63.91
74.79
81.79
85.06
84.90
81.74
76.25
69.29
61.76
54.41
47.70
41.83
36.74
32.21
27.99
23.87
19.74
15.64
11.67
7.92
4.35
0.64
-3.68
-9.09
-15.94
-24.33
-34.09
-44.73
-55.39
-64.80
-71.30
-73.20
-69.29
-59.34
-44.37
-26.43
-7.95
8.95
23.00
33.80
41.58
46.71
49.43
49.80
47.96
44.31
39.57
34.66
30.37
27.16
25.00
23.49
22.08
20.33
18.09
15.54
13.06
11.00
9.44
8.14
6.58
4.18
0.52
-4.58
-10.96
-18.29
-25.98
-33.24
-38.99
-41.96
-41.00
-35.50
-25.78
-13.12
0.61
13.49
24.20
32.27
37.96
41.82
44.32
45.63
45.67
44.38
41.90
38.58
34.95
31.49
28.47
25.95
23.76
21.66
19.42
16.91
14.17
11.36
8.71
6.36
4.37
2.59
0.73
-1.53
-4.53
-8.57
-13.84
-20.33
-27.64
-34.82
-40.46
-42.95
-40.97
-34.05
-22.84
-8.93
5.56
18.66
29.08
36.35
40.65
42.54
42.52
40.98
38.19
34.40
29.99
25.43
21.26
17.89
15.56
14.21
13.51
12.99
12.18
10.75
8.62
5.91
2.85
-0.37
-3.65
-7.00
-10.47
-14.09
-17.84
-21.82
-26.19
-31.16
-36.63
-42.01
-46.11
-47.47
-44.90
-38.00
-27.44
-14.73
-1.76
9.86
19.11
25.68
29.67
31.41
31.21
29.37
26.24
22.30
18.11
14.23
11.12
8.99
7.81
7.27
6.99
6.60
5.93
4.95
3.76
2.51
1.22
-0.16
-1.81
-3.87
-6.48
-9.71
-13.66
-18.32
-23.54
-28.83
-33.29
-35.73
-35.02
-30.50
-22.25
-11.18
1.24
13.46
24.32
33.17
39.91
44.64
47.46
48.36
47.35
44.62
40.65
36.22
32.17
29.21
27.74
27.78
29.00
30.79
32.34
32.83
31.59
28.33
23.13
16.35
8.46
-0.26
-9.69
-19.85
-30.66
-41.81
-52.79
-62.89
-71.33
-77.29
-79.94
-78.58
-72.87
-63.11
-50.33
-36.15
-22.30
-10.09
-0.20
7.39
12.97
16.83
19.03
19.54
18.43
16.11
13.26
10.65
8.83
7.93
7.73
7.78
7.72
7.38
6.86
6.42
6.21
6.28
6.40
6.27
5.56
4.04
1.61
-1.76
-6.07
-11.35
-17.49
-24.08
-30.29
-34.90
-36.62
-34.56
-28.60
-19.54
-8.78
2.09
11.83
19.75
25.66
29.69
32.04
32.88
32.48
31.22
29.62
28.12
26.95
26.11
25.40
24.69
24.01
23.56
23.62
24.33
25.60
27.10
28.43
29.25
29.45
29.21
28.94
29.08
29.94
31.52
33.44
35.16
36.17
36.36
36.17
36.57
38.74
43.68
51.85
62.97
76.00
89.28
100.85
108.83
111.99
110.10
104.08
95.59
86.37
77.58
69.46
61.50
52.97
43.58
33.67
24.03
15.43
8.26
2.53
-1.83
-4.67
-5.41
-3.36
1.92
10.23
20.55
31.32
40.92
48.24
53.10
56.26
59.07
62.87
68.48
75.81
84.00
91.70
97.55
100.41
99.54
94.79
86.88
77.69
69.95
66.42
68.77
76.73
88.04
99.33
107.33
110.01
107.10
99.78
89.92
79.27
68.84
58.91
49.24
39.52
29.57
19.31
8.42
-3.94
-19.28
-39.49
-66.04
-99.31
-138.33
-181.24
-225.87
-270.16
-311.88
-347.87
-373.75
-384.90
-378.47
-355.34
-320.64
-282.12
-246.92
-218.81
-197.44
-179.93
-163.53
-147.54
-133.20
-121.77
-112.53
-102.23
-86.57
-62.56
-30.15
8.07
48.81
90.13
131.90
174.36
216.14
253.30
280.09
291.36
285.00
263.02
230.56
193.79
157.72
125.04
96.34
71.02
48.05
26.43
4.85
-18.69
-46.69
-81.13
-122.05
-166.59
-209.57
-245.22
-269.27
-280.55
-281.23
-275.56
-267.54
-258.98
-248.91
-234.66
-214.39
-188.24
-158.63
-129.31
-104.04
-85.45
-74.35
-69.72
-68.92
-69.47
-68.52
-63.55
-53.22
-38.18
-21.11
-5.61
5.32
10.57
8.83
0.90
-10.63
-22.47
-32.07
-38.60
-42.48
-44.75
-46.06
-50.17
-59.15
-72.52
-87.89
-102.92
-116.96
-130.80
-146.38
-165.55
-194.64
-237.05
-290.91
-349.08
-402.14
-442.16
-464.59
-469.57
-434.17
-352.06
-233.84
-102.85
18.12
116.89
192.15
249.39
292.70
331.87
368.78
402.42
430.61
450.97
461.05
454.05
427.59
386.06
339.54
294.12
253.15
217.90
189.56
169.38
158.61
157.44
163.00
170.16
170.45
158.55
134.74
105.09
78.10
60.79
56.34
63.31
77.18
91.03
99.56
100.67
95.28
85.87
74.91
64.32
55.01
47.31
40.64
34.63
29.38
25.15
21.71
18.18
13.62
7.81
1.98
-1.44
0.22
8.60
23.22
41.62
60.52
77.38
91.22
102.28
111.03
117.12
119.46
117.08
110.13
100.04
88.73
77.24
65.12
50.88
33.45
13.67
-5.22
-18.78
-23.32
-17.80
-4.41
12.23
26.92
35.58
36.32
29.44
16.63
0.12
-18.24
-37.25
-56.50
-76.26
-97.32
-120.90
-148.64
-182.35
-223.40
-271.81
-325.20
-378.54
-424.77
-456.49
-468.03
-457.23
-425.98
-379.55
-324.95
-269.12
-217.65
-174.22
-140.66
-117.25
-102.91
-95.48
-92.12
-90.03
-87.19
-82.91
-77.75
-72.93
-69.75
-68.92
-70.61
-74.81
-81.62
-91.24
-103.66
-118.30
-133.98
-149.25
-162.76
-173.33
-179.53
-179.48
-170.73
-150.93
-118.73
-74.71
-21.71
36.12
95.00
153.04
210.55
268.79
327.47
382.73
427.18
452.12
451.33
423.92
375.08
314.00
250.45
191.83
142.05
102.13
71.25
47.49
27.79
8.25
-14.95
-43.65
-76.51
-109.19
-136.06
-152.62
-156.97
-149.97
-133.96
-111.53
-84.88
-56.10
-27.54
-1.76
18.90
33.27
41.72
45.93
48.12
50.03
52.35
54.58
55.63
54.41
50.57
44.49
37.11
29.42
22.06
15.32
9.18
3.68
-1.13
-5.23
-8.95
-13.00
-18.21
-25.14
-33.49
-41.95
-48.57
-51.38
-49.18
-41.95
-30.82
-17.64
-4.30
7.70
17.47
24.58
28.82
30.16
28.80
25.45
21.28
17.73
16.00
16.61
19.25
22.90
26.38
28.75
29.61
29.05
27.53
25.55
23.50
21.53
19.51
17.05
13.58
8.49
1.45
-7.30
-16.79
-25.36
-31.02
-32.07
-27.63
-17.92
-4.21
11.67
27.84
42.87
55.88
66.48
74.50
79.77
82.15
81.57
78.29
72.97
66.67
60.57
55.62
52.23
50.10
48.45
46.44
43.56
39.87
35.90
32.34
29.54
27.31
24.96
21.52
16.13
8.35
-1.66
-12.97
-24.02
-32.79
-37.27
-36.09
-28.93
-16.76
-1.49
14.52
29.20
41.19
49.91
55.39
57.91
57.87
55.73
52.04
47.51
42.90
38.84
35.62
33.13
30.97
28.74
26.27
23.82
21.97
21.30
21.94
23.33
24.09
22.49
17.06
7.15
-6.61
-22.44
-37.82
-50.06
-56.98
-57.31
-50.87
-38.56
-22.12
-3.72
14.50
30.84
44.27
54.47
61.57
65.88
67.74
67.40
65.21
61.63
57.31
52.89
48.80
45.18
41.83
38.36
34.47
30.12
25.57
21.26
17.57
14.62
12.12
9.46
5.94
1.01
-5.50
-13.28
-21.64
-29.53
-35.74
-39.08
-38.61
-33.82
-24.89
-12.68
1.42
15.77
28.92
39.90
48.37
54.34
57.67
57.63
52.87
42.01
24.55
1.61
-24.02
-48.80
-69.70
-85.31
-96.00
-103.06
-107.56
-109.53
-108.12
-102.48
-92.73
-80.38
-67.83
-57.39
-50.38
-46.86
-45.99
-46.58
-47.52
-47.87
-46.78
-43.40
-37.08
-27.70
-15.79
-2.51
10.71
22.62
32.39
39.64
44.29
46.41
46.19
43.97
40.38
36.22
32.30
29.17
26.95
25.37
23.94
22.17
19.82
16.92
13.81
10.89
8.47
6.66
5.28
3.94
2.14
-0.56
-4.46
-9.53
-15.31
-20.83
-24.79
-25.85
-23.20
-16.93
-8.04
1.90
11.34
19.31
25.58
30.43
34.24
37.09
38.80
39.10
38.01
35.99
33.79
32.16
31.55
31.86
32.62
33.18
33.07
32.11
30.53
28.79
27.29
26.19
25.21
23.83
21.46
17.71
12.53
6.28
-0.39
-6.55
-11.13
-13.11
-11.82
-7.20
-0.10
7.98
15.33
20.59
23.31
23.95
23.48
22.76
22.05
20.96
18.73
14.85
9.37
2.92
-3.57
-9.40
-14.34
-18.67
-22.85
-27.22
-31.67
-35.75
-38.83
-40.50
-40.81
-40.27
-39.60
-39.40
-39.94
-41.11
-42.48
-43.38
-42.92
-40.11
-33.95
-23.82
-9.76
7.29
25.74
43.88
60.45
75.02
87.79
99.08
108.55
115.01
116.57
111.54
99.27
80.77
58.58
36.04
16.31
1.48
-7.87
-12.50
-13.94
-13.86
-13.62
-14.01
-15.37
-17.60
-20.33
-22.94
-24.91
-26.37
-28.42
-33.06
-42.28
-56.80
-75.14
-93.56
-107.29
-112.47
-107.84
-95.32
-79.06
-63.56
-51.91
-44.93
-41.60
-40.17
-39.23
-38.10
-36.61
-34.57
-31.37
-26.18
-18.40
-8.17
3.41
14.57
23.44
28.63
29.69
27.26
22.94
18.91
17.30
19.61
26.28
36.49
48.36
59.48
67.54
70.85
68.72
61.48
50.31
36.96
23.33
11.03
1.21
-5.61
-9.37
-10.31
-8.82
-5.52
-1.29
2.74
5.39
5.81
3.83
0.03
-4.48
-8.34
-10.53
-10.73
-9.40
-7.68
-6.98
-8.34
-12.01
-17.19
-22.27
-25.51
-25.75
-22.88
-17.95
-12.68
-8.92
-8.02
-10.57
-16.41
-24.73
-34.21
-43.23
-50.09
-53.39
-52.38
-47.18
-38.71
-28.34
-17.54
-7.47
1.06
7.55
11.71
13.42
12.78
10.29
6.82
3.48
1.35
1.08
2.77
5.89
9.49
12.49
13.98
13.47
10.98
6.89
1.78
-3.84
-9.63
-15.48
-21.39
-27.39
-33.52
-39.81
-46.17
-52.24
-57.27
-60.22
-60.03
-56.07
-48.44
-38.01
-26.04
-13.76
-2.11
8.33
17.06
23.59
27.51
28.81
28.14
26.84
26.59
28.64
33.43
40.27
47.69
54.01
57.94
59.02
57.70
55.08
52.45
50.88
50.83
51.97
53.22
53.05
49.91
42.74
31.54
17.56
3.20
-8.77
-16.27
-18.83
-17.90
-16.29
-16.77
-20.73
-27.40
-34.17
-37.85
-36.17
-28.79
-17.30
-4.30
7.89
18.13
26.68
34.74
43.68
54.44
67.19
81.31
95.51
108.11
117.24
121.36
119.78
113.11
103.42
93.84
87.59
86.94
92.31
102.10
113.28
122.48
127.14
126.26
120.24
110.39
98.00
83.76
67.62
49.13
27.90
4.11
-21.37
-47.18
-71.83
-94.15
-113.45
-129.57
-142.72
-153.36
-162.09
-169.68
-177.01
-184.95
-194.03
-204.11
-214.08
-221.98
-225.52
-222.92
-213.68
-198.97
-181.40
-164.26
-150.65
-142.50
-140.12
-142.09
-145.57
-147.16
-143.81
-133.76
-117.12
-95.77
-72.68
-50.75
-31.94
-16.83
-4.94
4.51
11.91
17.05
19.46
18.94
15.92
11.28
5.85
0.14
-5.46
-10.23
-12.83
-11.83
-6.72
1.28
9.22
13.61
12.16
4.82
-6.23
-17.95
-28.07
-36.09
-43.07
-50.46
-58.87
-67.47
-74.39
-77.62
-75.92
-69.12
-58.05
-44.01
-28.52
-12.90
1.76
14.59
24.93
32.25
36.17
36.58
33.81
28.71
22.67
17.29
13.99
13.45
15.37
18.59
21.50
22.77
21.80
18.93
15.18
11.72
9.38
8.29
7.97
7.46
5.71
1.80
-4.75
-13.73
-24.15
-34.16
-41.45
-43.78
-39.75
-29.31
-13.86
4.08
21.73
36.75
47.74
54.36
56.98
56.34
53.24
48.50
42.99
37.69
33.56
31.31
31.21
32.95
35.78
38.71
40.89
41.77
41.28
39.78
37.80
35.91
34.43
33.36
32.33
30.71
27.70
22.74
15.76
7.49
-0.54
-6.37
-8.19
-4.99
3.10
14.80
28.21
41.40
52.88
61.77
67.58
70.06
69.09
64.85
58.00
49.72
41.51
34.74
30.26
28.14
27.73
27.97
27.85
26.72
24.50
21.58
18.55
15.92
13.79
11.86
9.52
6.10
1.17
-5.24
-12.71
-20.44
-27.43
-32.60
-34.96
-33.75
-28.54
-19.45
-7.11
7.32
22.30
36.16
47.31
54.50
57.07
55.10
49.43
41.54
33.14
25.76
20.35
17.08
15.44
14.39
12.75
9.51
4.08
-3.45
-12.26
-20.89
-27.77
-31.79
-33.01
-32.93
-34.03
-38.64
-47.53
-59.12
-69.73
-75.01
-71.81
-59.65
-40.84
-19.40
0.68
16.79
28.10
34.91
37.59
36.17
30.74
22.39
13.88
9.34
12.96
27.31
52.09
83.95
117.51
147.02
167.89
177.70
176.29
165.20
146.88
124.05
99.29
75.00
53.36
36.16
24.33
17.57
14.09
11.04
5.47
-4.39
-18.23
-33.63
-46.97
-54.95
-55.90
-50.38
-40.75
-29.98
-20.52
-13.48
-8.61
-4.83
-1.00
3.46
8.37
12.99
16.42
18.15
18.37
18.03
18.51
21.19
26.98
35.99
47.66
61.03
75.18
89.67
104.53
120.06
136.22
152.22
166.32
176.19
179.45
174.28
159.85
136.39
105.29
69.36
33.08
2.30
-16.94
-20.20
-6.16
22.92
62.40
107.07
152.47
195.04
231.19
256.24
264.60
251.76
216.99
165.48
107.95
57.77
26.45
19.35
33.82
60.18
85.32
97.03
87.78
56.67
8.98
-45.90
-97.59
-137.44
-160.42
-165.84
-156.80
-138.83
-117.88
-98.61
-83.24
-71.69
-62.35
-53.41
-43.79
-33.46
-23.11
-13.65
-5.99
-1.09
-0.12
-4.44
-15.39
-33.81
-59.53
-90.96
-124.94
-157.16
-182.80
-197.70
-199.53
-188.70
-168.56
-144.49
-122.32
-106.54
-99.27
-100.15
-107.33
-118.49
-131.52
-144.49
-155.23
-161.09
-159.44
-148.65
-129.08
-103.33
-75.59
-50.27
-30.51
-17.42
-10.15
-6.63
-4.62
-2.42
0.76
4.87
9.39
13.70
17.45
20.62
23.53
26.57
29.93
33.45
36.45
37.87
36.34
30.42
18.91
1.22
-22.12
-49.17
-76.57
-100.09
-115.58
-120.14
-113.01
-95.68
-71.39
-44.07
-17.25
6.45
25.54
39.42
48.23
52.63
53.77
52.88
50.89
48.03
43.75
37.24
28.12
16.95
5.33
-4.81
-11.97
-15.70
-16.62
-15.80
-14.12
-11.78
-8.50
-4.07
1.06
5.60
7.92
6.90
2.63
-3.37
-8.71
-11.05
-9.04
-2.77
6.28
15.78
23.19
26.34
24.05
16.44
5.10
-7.24
-17.54
-23.61
-25.00
-23.25
-21.27
-22.00
-27.21
-36.86
-49.37
-62.51
-74.50
-84.45
-92.13
-97.37
-99.71
-98.82
-95.17
-90.52
-87.58
-88.73
-94.65
-103.55
-111.82
-115.82
-113.62
-105.86
-94.78
-82.45
-69.22
-53.73
-34.46
-11.78
10.90
28.12
34.81
28.94
12.73
-8.03
-26.50
-37.47
-39.06
-32.66
-21.62
-9.52
1.01
8.64
12.99
14.10
12.02
6.82
-1.20
-11.18
-21.66
-30.77
-36.75
-38.49
-36.04
-30.63
-24.23
-18.88
-16.01
-16.18
-19.13
-24.07
-29.87
-35.20
-38.58
-38.52
-34.01
-24.86
-12.00
2.78
17.31
29.82
39.35
45.79
49.57
51.21
51.06
49.30
46.18
42.20
38.09
34.63
32.32
31.20
30.86
30.63
29.86
28.12
25.34
21.76
17.87
14.12
10.79
7.87
5.12
2.13
-1.50
-5.98
-11.26
-16.97
-22.43
-26.75
-28.92
-28.11
-23.92
-16.53
-6.79
4.06
14.72
24.12
31.63
36.98
40.13
41.07
39.82
36.56
31.78
26.27
20.97
16.68
13.76
12.06
11.06
10.09
8.65
6.58
4.02
1.24
-1.51
-4.16
-6.88
-9.99
-13.86
-18.79
-24.98
-32.33
-40.36
-48.12
-54.17
-56.94
-55.14
-48.34
-37.19
-23.35
-9.01
3.85
13.95
20.95
25.20
27.34
27.95
27.33
25.64
23.02
19.69
15.86
11.66
7.03
1.91
-3.46
-8.36
-11.54
-11.69
-8.11
-1.26
7.08
14.39
18.27
17.33
11.56
2.08
-9.42
-21.26
-32.03
-40.56
-45.88
-47.24
-44.34
-37.58
-27.99
-16.95
-5.73
4.78
14.09
21.89
27.80
31.41
32.37
30.75
27.13
22.50
17.96
14.31
11.82
10.27
9.28
8.55
8.20
8.50
9.59
11.09
12.00
11.09
7.41
0.92
-7.42
-15.86
-22.29
-24.71
-21.53
-11.82
4.51
26.35
51.23
75.41
94.58
105.04
104.83
94.49
76.91
56.38
37.20
22.57
13.99
11.35
13.48
18.72
25.30
31.39
35.20
35.10
30.06
20.02
6.11
-9.56
-24.54
-36.77
-45.11
-49.51
-50.87
-50.61
-50.21
-50.80
-52.64
-55.11
-56.85
-56.55
-53.53
-48.09
-41.10
-33.35
-24.94
-15.31
-3.92
8.93
21.86
32.89
40.47
44.27
45.24
44.84
44.04
42.87
40.76
37.33
33.14
29.59
28.12
29.25
32.16
34.98
35.71
33.22
27.70
20.62
14.06
10.04
10.17
15.38
25.91
41.25
60.06
80.14
98.61
112.52
119.61
119.04
111.70
100.00
86.96
75.20
66.08
59.43
53.78
47.08
37.50
23.80
5.60
-16.59
-41.32
-66.31
-88.61
-105.22
-113.79
-113.18
-103.53
-85.92
-62.22
-35.39
-9.74
9.08
15.33
5.39
-19.89
-54.16
-86.99
-107.33
-107.52
-86.07
-47.63
-0.47
47.28
90.37
127.19
158.25
183.85
202.69
212.33
210.98
199.54
182.13
164.70
152.24
146.35
144.79
143.14
137.77
128.05
116.59
107.30
102.50
101.24
99.78
94.07
82.41
66.74
51.64
41.86
39.73
44.31
52.32
60.20
65.82
68.89
70.09
69.84
67.58
61.90
51.38
35.47
14.83
-8.91
-33.62
-57.29
-78.47
-96.60
-112.06
-125.84
-138.95
-151.52
-162.37
-169.03
-168.86
-160.66
-145.91
-128.85
-115.20
-109.80
-114.54
-127.66
-144.68
-160.64
-172.18
-178.58
-181.32
-182.75
-184.73
-187.95
-192.16
-196.56
-200.22
-202.00
-200.51
-194.24
-182.30
-165.10
-144.47
-123.10
-103.06
-84.66
-66.12
-44.35
-16.54
18.37
59.09
102.14
142.94
177.13
201.41
214.24
216.04
209.09
196.97
183.67
172.42
164.90
161.06
159.76
159.66
159.78
159.29
156.94
150.77
138.63
119.35
93.83
65.20
37.83
15.56
-0.00
-9.81
-16.64
-23.42
-31.57
-40.52
-48.20
-52.43
-52.20
-48.26
-42.68
-37.85
-35.50
-36.04
-38.69
-42.22
-45.69
-48.99
-52.83
-58.07
-64.97
-72.60
-78.98
-81.74
-79.29
-71.53
-60.05
-47.32
-35.48
-25.45
-16.95
-9.51
-3.77
-1.98
-7.12
-21.15
-43.36
-70.07
-95.88
-115.79
-126.66
-127.48
-118.50
-100.42
-74.56
-43.83
-13.82
7.64
12.76
-3.00
-38.31
-85.70
-133.86
-171.51
-191.21
-191.23
-175.23
-150.03
-122.76
-98.65
-80.12
-67.16
-58.69
-53.70
-51.87
-53.45
-58.45
-66.19
-75.15
-83.27
-88.50
-89.10
-83.88
-72.30
-54.55
-31.62
-5.18
22.78
50.16
74.84
94.59
107.21
111.22
106.93
97.30
87.52
83.05
87.02
97.99
109.99
114.69
105.05
78.50
38.17
-8.38
-52.09
-85.33
-103.86
-107.09
-97.28
-78.30
-54.59
-30.45
-9.62
5.06
11.83
10.28
1.29
-12.89
-28.90
-42.57
-49.63
-46.69
-32.30
-7.67
23.40
55.66
84.17
105.83
120.19
128.82
134.15
138.00
140.97
142.60
141.90
137.60
128.00
110.92
84.22
47.14
1.90
-45.48
-86.24
-111.57
-116.20
-100.88
-72.57
-42.00
-19.66
-11.99
-19.52
-37.42
-58.22
-74.84
-82.86
-81.10
-70.84
-54.30
-33.43
-9.61
16.04
42.09
66.70
87.96
104.53
116.06
123.05
126.37
126.62
123.88
117.78
108.01
94.72
78.75
61.63
45.28
31.63
22.14
17.47
17.20
19.80
22.92
23.80
19.97
9.96
-6.08
-26.10
-46.34
-62.26
-69.76
-66.53
-52.86
-31.50
-6.76
16.96
36.29
49.34
55.54
55.08
48.64
37.38
23.28
9.00
-2.53
-9.10
-9.99
-6.12
0.39
7.25
12.84
16.59
18.66
19.40
18.80
16.38
11.44
3.47
-7.45
-20.65
-35.04
-49.30
-62.01
-71.69
-76.94
-76.76
-70.95
-60.32
-46.49
-31.16
-15.28
1.28
19.41
39.67
61.18
81.17
95.66
100.96
95.35
80.06
58.96
37.07
18.80
6.53
0.28
-1.56
-1.06
0.40
2.55
6.00
11.41
18.83
27.21
34.58
38.60
37.34
29.90
16.60
-1.02
-20.63
-39.55
-55.22
-65.53
-69.11
-65.40
-54.78
-38.37
-17.95
4.49
27.09
48.40
67.39
83.22
94.89
101.14
100.81
93.62
80.90
65.88
53.14
47.09
50.24
61.72
77.21
90.33
95.02
87.89
69.35
43.15
14.50
-12.02
-33.85
-50.51
-62.70
-71.11
-75.81
-76.40
-72.69
-65.21
-55.20
-44.05
-32.64
-20.95
-8.37
5.80
21.74
38.87
55.96
71.46
83.91
92.09
95.39
93.84
88.16
79.52
69.24
58.30
47.01
35.03
21.73
6.65
-9.94
-26.95
-42.54
-54.55
-61.02
-60.62
-53.11
-39.64
-22.81
-6.57
4.41
5.81
-4.89
-27.34
-58.01
-91.09
-120.21
-140.23
-148.48
-144.82
-130.95
-109.43
-82.97
-54.27
-26.11
-1.36
17.52
29.11
33.54
32.35
27.89
22.56
18.28
16.56
18.78
26.21
39.66
58.74
81.29
103.31
119.94
127.06
122.73
107.77
85.05
57.99
29.18
-0.03
-28.78
-55.57
-77.70
-91.84
-95.64
-89.15
-75.18
-58.26
-42.70
-31.00
-23.44
-18.75
-15.38
-12.40
-9.60
-6.98
-4.27
-0.91
3.54
8.96
14.61
19.51
23.19
25.95
28.79
32.74
38.21
44.71
51.04
55.91
58.55
59.04
58.09
56.60
55.21
53.97
52.48
49.88
44.80
35.30
19.44
-3.34
-30.88
-57.78
-76.69
-81.09
-68.37
-41.48
-8.28
21.22
38.50
39.44
25.27
1.45
-24.85
-47.38
-62.17
-67.83
-64.61
-53.41
-35.26
-11.48
15.72
42.97
66.08
81.37
87.11
84.25
75.88
65.77
56.88
50.64
47.21
46.32
47.88
51.83
57.68
64.16
69.18
70.29
65.33
52.93
32.70
5.26
-27.85
-64.23
-100.83
-134.26
-161.21
-179.00
-186.06
-182.21
-168.74
-148.25
-124.26
-100.52
-80.28
-65.55
-56.62
-52.24
-50.15
-48.04
-44.38
-38.76
-31.82
-24.59
-18.01
-12.53
-8.20
-4.86
-2.43
-0.96
-0.56
-1.22
-2.60
-4.11
-5.05
-4.93
-3.75
-2.13
-1.10
-1.82
-4.93
-10.21
-16.43
-21.66
-24.03
-22.54
-17.63
-11.36
-6.95
-7.76
-15.97
-31.34
-50.69
-68.20
-76.85
-70.31
-44.79
-0.58
57.60
121.23
179.69
222.55
241.96
234.52
202.23
151.98
93.75
37.95
-7.14
-37.09
-51.47
-52.82
-45.08
-32.23
-17.56
-3.72
7.09
13.07
13.17
7.67
-1.37
-10.50
-15.91
-14.73
-6.31
7.62
23.76
38.34
48.64
53.48
52.95
47.87
39.52
29.95
22.15
19.32
23.10
31.80
40.15
41.48
31.55
11.66
-11.24
-27.78
-31.09
-20.10
0.63
24.28
45.83
64.06
80.41
95.85
108.48
113.67
106.36
83.85
47.06
-0.15
-52.55
-105.15
-153.64
-194.23
-223.60
-239.46
-241.42
-231.42
-213.24
-191.32
-169.23
-149.01
-131.35
-116.30
-103.92
-93.96
-85.02
-73.66
-54.74
-23.08
23.76
83.11
146.75
202.79
239.55
249.26
230.49
188.36
132.62
74.96
26.19
-5.98
-18.33
-12.64
5.03
26.23
42.90
50.06
47.07
37.12
24.95
14.38
6.56
0.08
-7.60
-18.40
-32.59
-48.93
-65.79
-82.21
-98.38
-115.01
-132.08
-147.92
-159.19
-162.02
-153.46
-133.05
-103.14
-68.03
-32.50
-0.18
27.17
49.52
67.78
82.89
95.38
105.47
113.50
120.18
126.23
131.54
134.53
132.31
121.80
101.43
72.36
38.53
5.26
-22.93
-44.05
-59.05
-70.85
-82.36
-94.91
-107.63
-118.11
-123.78
-123.32
-117.22
-107.64
-97.47
-89.34
-84.76
-83.84
-85.44
-87.66
-88.43
-85.95
-79.03
-67.21
-50.91
-31.22
-9.58
12.70
34.98
57.31
80.10
103.47
126.69
148.14
165.98
178.98
187.13
191.61
194.13
195.92
197.09
196.74
193.64
187.29
178.51
169.23
161.62
157.05
155.36
154.91
153.30
148.19
138.05
122.33
101.14
74.81
43.77
8.83
-28.47
-65.82
-100.62
-130.70
-154.91
-173.08
-185.53
-192.31
-193.11
-187.65
-176.53
-161.88
-147.13
-136.14
-131.77
-134.91
-144.15
-156.36
-167.77
-175.13
-176.61
-172.08
-162.94
-151.45
-139.78
-129.37
-120.60
-113.04
-105.92
-98.64
-91.05
-83.39
-76.04
-69.38
-63.80
-59.78
-57.97
-59.00
-63.16
-69.96
-77.89
-84.40
-86.44
-81.36
-67.84
-46.60
-20.31
7.23
32.30
52.44
66.91
76.50
82.61
86.45
88.54
88.77
86.86
82.88
77.45
71.63
66.51
62.75
60.39
58.83
57.25
55.01
51.93
48.39
45.05
42.46
40.67
39.15
37.02
33.47
28.09
21.04
12.92
4.47
-3.63
-10.78
-16.32
-19.53
-19.91
-17.61
-13.66
-9.65
-7.00
-6.01
-5.56
-3.54
1.94
11.27
22.84
33.55
40.29
41.35
37.20
30.08
22.89
17.76
15.35
14.95
15.22
15.09
14.30
13.38
13.08
13.84
15.47
17.33
18.77
19.46
19.63
19.79
20.35
21.29
22.00
21.55
19.07
14.25
7.53
0.12
-6.43
-10.82
-12.53
-12.02
-10.51
-9.46
-9.87
-11.92
-14.87
-17.52
-18.71
-17.78
-14.80
-10.39
-5.48
-0.97
2.54
4.93
6.64
8.55
11.64
16.62
23.54
31.67
39.76
46.52
51.23
53.96
55.43
56.58
57.98
59.58
60.60
59.91
56.33
48.96
37.48
22.27
4.53
-13.78
-30.15
-41.94
-47.05
-44.50
-34.72
-19.56
-1.72
15.92
31.07
42.45
49.87
53.92
55.60
55.84
55.43
54.90
54.62
54.90
56.01
58.04
60.86
64.03
66.88
68.67
68.75
66.79
62.86
57.46
51.30
45.14
39.49
34.44
29.62
24.28
17.50
8.49
-3.14
-17.09
-32.31
-47.04
-59.05
-66.13
-66.57
-59.69
-46.26
-28.54
-9.96
5.76
15.55
18.00
13.72
5.09
-4.61
-12.34
-16.17
-15.70
-11.82
-6.08
-0.11
4.89
8.18
9.47
8.79
6.42
2.91
-0.97
-4.47
-7.09
-8.86
-10.32
-12.29
-15.46
-20.06
-25.77
-32.01
-38.27
-44.51
-51.19
-58.92
-67.92
-77.41
-85.31
-88.51
-83.71
-68.52
-42.43
-7.21
33.33
74.11
109.76
135.53
148.05
145.95
130.26
104.51
74.11
45.19
22.93
10.29
7.52
12.73
23.24
36.85
52.46
69.87
88.99
109.02
128.25
144.42
155.46
160.22
158.80
152.66
144.07
135.46
128.50
123.43
119.03
113.14
103.82
90.41
73.91
56.62
40.88
27.88
17.05
6.32
-7.15
-25.82
-50.91
-81.77
-115.63
-147.99
-173.57
-188.03
-189.57
-179.88
-163.48
-145.85
-131.22
-121.09
-114.27
-108.08
-100.08
-89.26
-76.35
-63.21
-52.10
-44.85
-42.50
-44.87
-50.54
-57.03
-61.35
-60.75
-53.56
-39.82
-21.46
-2.07
13.91
22.48
21.67
12.82
0.69
-7.86
-6.26
9.25
38.23
76.14
115.75
149.15
169.54
172.53
156.83
124.69
81.69
35.72
-4.85
-33.43
-46.85
-45.85
-34.14
-16.71
1.58
16.84
26.35
28.60
23.19
10.70
-7.71
-30.70
-57.04
-85.48
-114.23
-140.74
-162.04
-175.88
-181.70
-181.16
-177.55
-174.60
-175.18
-180.50
-189.87
-201.03
-210.67
-215.12
-211.35
-197.87
-175.28
-146.07
-113.57
-80.62
-48.61
-17.50
13.37
44.08
73.29
98.28
115.84
123.45
120.29
107.69
88.91
68.25
50.12
38.00
33.76
37.35
46.71
58.18
67.26
69.76
63.14
47.39
25.24
1.17
-20.14
-35.44
-43.92
-47.05
-47.66
-48.64
-51.70
-56.89
-62.66
-66.66
-66.69
-61.40
-50.71
-35.54
-17.34
2.41
22.38
41.28
57.85
70.84
79.45
83.75
84.88
84.77
85.39
87.87
91.94
96.03
97.95
95.97
89.72
80.38
70.13
61.04
54.00
48.32
42.23
34.03
23.27
11.32
0.80
-5.85
-7.83
-6.84
-6.78
-12.37
-27.26
-52.31
-84.99
-119.91
-150.38
-170.35
-175.92
-166.17
-143.00
-110.36
-73.24
-36.64
-4.71
19.63
34.97
41.26
39.64
32.04
20.67
7.44
-6.44
-20.33
-33.48
-44.28
-50.14
-48.24
-37.15
-18.32
3.67
22.41
32.19
30.26
17.67
-1.78
-23.57
-43.90
-60.03
-69.72
-70.83
-61.94
-43.67
-19.68
3.88
20.60
26.52
21.63
9.49
-4.85
-16.93
-23.90
-24.14
-16.47
0.01
25.09
56.44
89.43
118.14
137.45
144.59
139.62
124.90
104.20
81.98
63.11
52.66
54.70
70.67
97.84
129.11
154.57
164.83
154.67
125.57
85.85
47.77
22.91
17.59
30.56
53.91
76.83
90.01
88.58
72.57
45.61
13.34
-17.67
-40.45
-48.83
-39.61
-14.61
18.97
50.65
70.93
75.58
67.33
54.31
45.89
48.08
60.89
78.78
93.50
97.70
87.64
64.24
32.53
-0.12
-26.40
-41.32
-43.70
-36.37
-25.25
-17.71
-20.53
-37.92
-70.07
-112.51
-157.18
-195.08
-219.35
-227.59
-222.36
-209.62
-196.06
-186.81
-184.39
-188.91
-199.18
-213.40
-229.06
-242.67
-249.87
-246.42
-229.86
-200.66
-162.35
-120.17
-79.36
-43.74
-15.32
5.45
19.05
26.43
28.79
27.50
23.77
18.54
12.33
5.42
-1.80
-8.56
-13.85
-16.83
-17.59
-17.56
-19.54
-26.92
-42.52
-67.02
-98.19
-130.98
-158.86
-175.85
-178.55
-167.12
-144.97
-117.27
-89.07
-64.01
-43.91
-29.13
-19.05
-12.20
-5.97
3.15
18.72
42.60
73.31
105.91
133.89
152.34
160.84
164.09
169.55
183.41
206.99
235.82
261.94
277.92
280.21
270.08
251.96
230.70
209.57
189.96
172.37
157.76
147.85
144.36
147.73
156.18
165.89
172.11
170.91
160.63
142.83
121.87
103.42
92.22
89.95
94.30
99.75
99.91
90.12
69.28
39.68
5.78
-27.69
-57.11
-80.20
-95.78
-103.37
-103.31
-96.99
-87.18
-77.55
-71.60
-71.52
-77.52
-87.86
-99.52
-109.16
-114.03
-112.49
-104.37
-90.87
-74.56
-58.79
-46.87
-40.84
-40.54
-43.68
-46.84
-47.34
-44.84
-41.69
-41.71
-48.12
-61.77
-80.70
-101.41
-120.79
-137.67
-152.84
-167.83
-182.82
-195.69
-202.54
-199.45
-184.55
-158.89
-125.92
-89.68
-53.14
-17.52
17.07
50.21
80.35
105.09
122.52
132.40
136.45
137.25
136.46
133.63
126.36
111.89
89.00
59.20
26.43
-4.41
-29.39
-46.87
-57.67
-64.13
-68.99
-74.37
-81.28
-89.72
-98.98
-107.96
-115.51
-120.78
-123.55
-124.55
-125.54
-128.93
-137.07
-151.36
-171.51
-195.24
-218.56
-236.65
-244.96
-240.44
-222.39
-192.67
-155.27
-115.14
-76.85
-43.56
-16.54
4.64
21.55
36.28
51.00
67.59
87.16
109.55
133.33
156.20
175.87
190.87
201.04
207.25
210.77
212.51
212.61
210.49
205.27
196.07
182.36
163.93
140.89
113.80
83.79
52.65
22.57
-4.30
-26.44
-43.49
-56.22
-66.41
-76.08
-86.63
-98.16
-109.30
-117.69
-120.89
-117.26
-106.54
-89.82
-69.10
-46.68
-24.79
-5.29
10.38
21.33
27.33
28.91
27.39
24.62
22.50
22.51
25.37
30.88
38.13
45.86
52.83
58.24
61.82
63.87
64.99
65.86
66.93
68.32
69.85
71.20
71.97
71.88
70.69
68.25
64.52
59.65
54.09
48.51
43.70
40.39
39.19
40.49
44.53
51.40
61.04
73.19
87.33
102.77
118.65
134.10
148.39
161.05
172.04
181.79
191.04
200.47
210.27
219.84
227.90
232.81
233.08
227.67
216.03
198.07
174.14
145.29
113.50
81.57
52.66
29.36
12.98
3.38
-0.69
-0.86
1.32
4.57
7.66
9.19
7.51
0.82
-12.57
-33.82
-63.04
-98.69
-137.17
-173.04
-200.11
-213.27
-210.42
-193.35
-167.10
-137.85
-110.72
-88.50
-72.09
-61.82
-58.61
-63.72
-77.35
-97.23
-118.33
-134.50
-140.91
-136.09
-122.13
-103.12
-82.88
-63.49
-45.32
-28.32
-13.21
-1.76
4.11
3.60
-2.29
-11.18
-20.49
-28.72
-35.99
-43.67
-53.26
-65.30
-78.77
-91.16
-99.41
-100.95
-94.58
-80.86
-61.78
-39.98
-17.98
2.45
20.38
35.53
47.88
57.42
64.04
67.65
68.34
66.48
62.73
57.89
52.76
47.91
43.51
39.41
35.21
30.56
25.27
19.38
13.10
6.67
0.19
-6.31
-12.85
-19.39
-25.77
-31.85
-37.52
-42.88
-48.13
-53.36
-58.34
-62.30
-64.10
-62.54
-56.90
-47.31
-34.87
-21.33
-8.57
2.02
9.82
14.99
18.15
20.03
21.09
21.47
21.09
19.80
17.63
14.94
12.29
10.33
9.44
9.65
10.48
11.16
10.93
9.32
6.32
2.30
-2.19
-6.60
-10.53
-13.67
-15.87
-17.30
-18.60
-20.98
-25.88
-34.25
-45.87
-58.92
-70.41
-77.22
-77.39
-70.87
-59.43
-45.76
-32.19
-20.01
-9.50
-0.45
7.03
12.33
14.67
13.79
10.43
6.27
3.31
3.07
6.03
11.68
18.97
26.93
34.91
42.47
49.03
53.63
55.12
52.78
46.76
38.33
29.37
21.53
15.49
10.74
5.94
-0.34
-8.84
-19.29
-30.46
-40.58
-47.88
-51.04
-49.57
-43.93
-35.34
-25.46
-15.95
-7.93
-1.86
2.37
5.15
6.84
7.64
7.59
6.78
5.49
4.16
3.37
3.61
5.14
7.94
11.68
15.78
19.58
22.42
23.78
23.32
20.98
17.00
11.88
6.32
1.04
-3.36
-6.61
-8.84
-10.66
-13.01
-17.01
-23.55
-32.90
-44.34
-56.27
-66.31
-71.95
-71.22
-63.15
-48.06
-27.49
-3.80
20.25
42.02
59.34
70.82
76.00
75.44
70.53
63.20
55.45
48.75
43.71
39.98
36.68
33.05
29.13
25.94
25.16
28.18
35.19
44.69
53.73
58.83
57.20
47.65
30.88
9.21
-14.11
-35.82
-53.32
-65.20
-71.24
-72.15
-69.01
-62.72
-53.78
-42.32
-28.46
-12.81
3.44
18.70
31.58
41.42
48.48
53.66
57.87
61.60
64.82
67.32
69.15
70.92
73.65
78.28
85.40
95.07
107.12
121.29
137.00
152.78
165.81
172.08
167.24
148.12
113.96
66.90
11.68
-45.51
-98.19
-140.73
-169.17
-181.91
-179.90
-166.44
-146.12
-123.36
-101.11
-80.26
-60.13
-39.68
-18.71
1.73
19.79
33.88
43.45
49.35
53.42
57.55
62.92
69.78
77.32
83.87
87.28
85.17
75.76
58.39
34.06
5.49
-23.33
-48.52
-67.55
-79.81
-86.47
-89.24
-89.63
-88.67
-87.08
-85.31
-84.04
-83.93
-85.17
-87.46
-89.77
-91.34
-92.16
-92.57
-91.46
-86.95
-76.83
-59.64
-36.11
-7.76
22.70
51.89
76.93
97.86
115.13
128.77
138.27
142.14
142.35
142.49
145.75
153.92
169.33
191.21
215.77
237.73
250.86
255.65
256.79
260.62
273.27
301.80
347.57
404.84
462.26
504.95
526.75
528.87
517.51
474.72
393.49
279.76
151.86
47.88
-31.36
-93.27
-145.16
-196.31
-249.55
-300.15
-341.32
-366.84
-373.99
-367.60
-352.49
-335.63
-324.77
-324.77
-333.25
-344.70
-353.58
-357.13
-357.56
-354.83
-348.11
-336.48
-318.92
-293.76
-261.31
-224.12
-186.62
-154.69
-130.27
-112.65
-99.64
-87.94
-73.46
-53.44
-27.39
2.08
30.07
53.27
70.59
83.03
93.04
103.04
113.72
123.73
129.87
128.88
121.23
110.55
101.90
99.12
102.55
107.66
111.25
110.41
102.67
86.09
60.69
26.31
-16.89
-67.67
-122.62
-175.44
-218.47
-244.80
-250.83
-237.95
-212.21
-181.21
-150.67
-122.29
-94.26
-64.46
-33.06
-3.38
19.52
31.48
31.78
23.55
12.12
2.60
-2.57
-3.92
-3.98
-5.60
-10.64
-19.12
-29.46
-39.28
-46.53
-50.51
-51.94
-52.15
-52.15
-51.88
-50.11
-45.16
-36.04
-23.19
-8.64
4.86
14.97
20.61
22.13
20.82
18.23
15.64
13.84
13.28
14.18
16.57
20.27
24.87
29.77
34.31
37.95
40.33
41.31
40.95
39.42
36.98
33.84
30.16
26.01
21.39
16.35
11.03
5.71
0.74
-3.59
-7.22
-10.43
-13.88
-18.46
-24.85
-33.11
-42.17
-49.83
-53.15
-49.42
-37.22
-17.16
8.03
34.22
56.91
72.25
77.77
72.74
58.30
37.29
13.90
-7.14
-21.73
-27.48
-24.44
-14.95
-2.72
8.62
16.57
20.37
20.63
18.71
15.96
13.24
10.88
8.75
6.50
3.77
0.29
-3.94
-8.67
-13.46
-17.80
-21.24
-23.62
-25.12
-26.19
-27.39
-29.01
-30.89
-32.30
-32.15
-29.27
-22.93
-13.22
-1.13
11.55
22.76
30.80
34.87
35.43
33.92
32.32
32.38
35.04
40.14
46.64
53.01
57.80
60.06
59.45
56.20
50.91
44.39
37.52
31.15
25.94
22.30
20.30
19.72
20.18
21.22
22.46
23.59
24.29
24.15
22.55
18.87
12.66
3.99
-6.35
-16.95
-26.09
-32.22
-34.41
-32.65
-27.78
-21.34
-15.09
-10.54
-8.50
-8.90
-10.89
-13.20
-14.66
-14.60
-13.06
-10.59
-7.85
-5.37
-3.31
-1.66
-0.49
-0.10
-0.93
-3.30
-7.12
-11.79
-16.35
-19.87
-21.74
-21.93
-20.83
-19.00
-16.97
-15.09
-13.64
-12.96
-13.54
-15.88
-20.25
-26.36
-33.25
-39.46
-43.39
-43.81
-40.18
-32.79
-22.64
-11.10
0.43
10.81
19.34
25.79
30.27
33.12
34.77
35.58
35.81
35.61
35.09
34.33
33.47
32.56
31.65
30.65
29.44
27.88
25.86
23.37
20.48
17.27
13.85
10.34
6.80
3.26
-0.29
-3.91
-7.68
-11.69
-16.05
-20.85
-26.17
-31.88
-37.45
-41.92
-43.97
-42.36
-36.48
-26.66
-14.25
-1.19
10.68
20.12
26.76
30.90
33.18
34.14
34.13
33.32
31.88
30.01
28.00
26.13
24.60
23.49
22.81
22.56
22.66
22.99
23.35
23.44
22.98
21.79
19.89
17.53
15.08
12.96
11.42
10.45
9.70
8.52
6.02
1.39
-5.74
-15.01
-25.14
-34.18
-40.11
-41.47
-37.96
-30.47
-20.78
-10.78
-1.97
4.94
9.90
13.25
15.40
16.71
17.55
18.29
19.37
21.11
23.64
26.84
30.32
33.63
36.28
37.94
38.41
37.59
35.50
32.25
28.08
23.35
18.43
13.71
9.38
5.48
1.79
-2.08
-6.65
-12.34
-19.23
-26.90
-34.37
-40.23
-43.07
-41.94
-36.67
-27.95
-17.06
-5.52
5.37
14.75
22.22
27.71
31.33
33.22
33.57
32.59
30.56
27.80
24.65
21.41
18.36
15.67
13.41
11.52
9.84
8.18
6.38
4.32
2.04
-0.39
-2.84
-5.23
-7.59
-10.04
-12.77
-16.03
-20.04
-24.93
-30.60
-36.63
-42.13
-45.93
-46.80
-43.84
-36.82
-26.34
-13.67
-0.42
11.93
22.29
30.10
35.20
37.69
37.85
36.08
33.03
29.51
26.34
24.17
23.24
23.35
24.01
24.69
25.10
25.19
25.15
25.28
25.74
26.57
27.55
28.27
28.03
26.01
21.42
13.79
3.18
-9.79
-24.12
-38.67
-52.36
-64.19
-73.17
-78.30
-78.69
-73.91
-64.29
-51.04
-36.02
-21.21
-8.23
2.01
9.35
14.08
16.74
17.80
17.71
16.83
15.51
14.11
12.98
12.43
12.66
13.75
15.61
18.00
20.63
23.23
25.62
27.76
29.62
31.19
32.31
32.75
32.28
30.81
28.38
25.21
21.58
17.72
13.78
9.79
5.75
1.70
-2.14
-5.48
-7.93
-9.16
-8.92
-7.06
-3.49
1.85
8.85
17.15
26.02
34.49
41.53
46.47
49.27
50.63
51.76
53.91
57.85
63.41
69.46
74.13
75.41
71.75
62.57
48.49
31.23
13.35
-2.21
-12.64
-15.78
-10.59
2.49
21.52
43.58
65.49
84.75
100.15
111.90
121.37
130.58
141.60
156.01
174.29
195.38
216.56
233.87
