1624787637.00
64.000000
-0.00
-0.00
-0.00
-0.00
-0.00
-0.00
-0.00
-0.00
-0.00
-0.00
0.00
0.01
0.01
-0.00
-0.03
-0.05
-0.05
0.00
0.13
0.36
0.66
1.01
1.38
1.73
2.06
2.41
2.79
3.25
3.84
4.53
5.27
5.99
6.63
7.18
7.67
8.22
8.93
9.96
11.27
12.72
14.15
15.39
16.44
17.46
18.71
20.46
23.03
26.27
29.88
33.43
36.61
39.40
42.13
45.35
49.62
55.53
62.84
70.94
78.97
86.23
92.52
98.34
104.71
112.73
123.46
136.70
151.43
166.13
179.40
190.69
200.63
211.21
222.30
237.20
257.01
281.32
307.71
331.77
348.13
352.27
342.00
318.33
285.14
246.90
207.00
166.93
126.36
84.26
40.24
-5.47
-51.73
-97.04
-139.58
-176.93
-205.92
-224.01
-231.26
-230.75
-228.37
-229.64
-237.00
-248.32
-258.05
-260.80
-254.26
-241.06
-226.37
-215.13
-208.44
-203.68
-196.67
-184.81
-169.42
-154.47
-144.81
-142.13
-144.86
-148.13
-146.82
-138.30
-123.03
-104.77
-87.50
-74.36
-65.32
-58.75
-52.09
-43.88
-35.23
-28.36
-26.30
-30.02
-38.77
-49.24
-57.45
-60.51
-57.01
-48.20
-36.05
-23.31
-11.29
-0.86
7.90
14.87
18.93
19.20
14.49
5.34
-7.00
-19.60
-29.38
-34.30
-33.32
-27.59
-18.72
-9.02
0.44
8.90
16.13
21.86
24.82
24.01
18.28
8.24
-4.80
-17.97
-28.27
-33.74
-33.31
-27.97
-19.10
-8.88
1.60
11.29
19.64
26.11
29.30
28.37
22.35
12.06
-1.11
-14.30
-24.58
-30.07
-29.71
-24.53
-15.91
-6.07
3.91
13.03
20.78
26.70
29.47
28.27
22.16
11.93
-1.04
-13.91
-23.85
-29.05
-28.64
-23.77
-15.88
-7.10
1.67
9.68
16.61
22.04
24.55
23.13
16.73
6.12
-7.22
-20.33
-30.29
-35.40
-34.91
-30.09
-22.40
-13.90
-5.31
2.74
9.95
15.78
18.62
17.31
10.66
-0.53
-14.73
-28.93
-40.15
-46.47
-46.77
-41.86
-32.79
-21.51
-9.13
2.97
13.61
21.68
25.43
23.99
16.69
4.70
-10.34
-25.55
-38.06
-45.83
-47.37
-42.90
-33.09
-19.91
-4.89
9.85
22.44
31.37
35.01
32.89
24.84
12.33
-2.99
-18.45
-31.42
-39.94
-42.35
-38.59
-29.09
-15.77
-0.32
14.89
27.71
36.53
39.74
37.06
28.51
15.72
0.33
-15.07
-27.98
-36.54
-39.12
-35.69
-26.62
-13.78
1.18
15.95
28.41
36.95
39.97
37.17
28.58
15.78
0.42
-14.93
-27.78
-36.29
-38.87
-35.48
-26.46
-13.66
1.30
16.11
28.62
37.22
40.26
37.45
28.82
15.99
0.64
-14.62
-27.30
-35.61
-38.02
-34.61
-25.83
-13.52
0.77
14.87
26.81
35.06
37.99
35.24
26.71
13.97
-1.36
-16.66
-29.42
-37.81
-40.28
-36.83
-27.84
-15.13
-0.27
14.48
27.02
35.70
38.85
36.10
27.46
14.54
-0.94
-16.34
-29.12
-37.47
-39.86
-36.37
-27.43
-14.91
-0.35
14.03
26.21
34.65
37.71
35.00
26.47
13.66
-1.81
-17.36
-30.46
-39.22
-41.95
-38.47
-29.05
-15.49
0.49
16.37
29.80
39.00
42.29
39.46
30.66
17.65
2.15
-13.23
-26.01
-34.43
-36.95
-33.63
-24.90
-12.61
1.67
15.75
27.64
35.82
38.67
35.81
27.16
14.28
-1.18
-16.62
-29.51
-38.00
-40.50
-36.98
-27.81
-14.80
0.44
15.61
28.54
37.57
40.99
38.44
29.91
17.01
1.48
-14.03
-26.95
-35.42
-37.86
-34.28
-25.13
-12.23
2.78
17.68
30.37
39.27
42.76
40.46
32.33
19.91
4.85
-10.29
-23.03
-31.57
-34.34
-31.30
-22.76
-10.42
4.19
18.91
31.57
40.50
43.91
41.41
33.04
20.57
5.94
-8.17
-19.49
-26.85
-29.52
-28.15
-23.25
-16.07
-7.17
2.39
11.36
18.61
22.49
22.41
18.01
10.48
1.03
-8.44
-16.30
-21.72
-23.95
-23.28
-19.76
-14.24
-7.11
0.78
8.37
14.81
18.82
20.03
18.03
13.76
8.03
2.16
-2.75
-6.49
-8.84
-10.48
-11.39
-11.92
-11.51
-9.90
-7.12
-3.28
0.60
3.99
5.99
6.74
6.18
4.74
2.88
0.56
-1.84
-4.50
-6.86
-8.88
-9.86
-9.43
-7.62
-4.40
-0.56
3.50
6.88
9.61
11.46
12.52
12.90
11.98
9.51
4.85
-1.52
-9.20
-16.71
-22.62
-25.91
-25.60
-21.87
-14.91
-5.95
4.20
14.06
22.33
27.97
29.64
27.04
19.93
9.50
-2.96
-15.24
-25.19
-31.35
-32.52
-28.96
-21.15
-10.72
1.19
12.91
22.94
30.01
32.52
29.88
21.67
9.18
-6.06
-21.41
-34.25
-42.66
-45.04
-41.37
-32.01
-18.77
-3.22
12.29
25.55
34.84
38.39
35.86
27.27
14.29
-1.34
-17.00
-30.13
-38.85
-41.49
-37.95
-28.57
-15.19
0.47
15.95
28.98
37.88
41.01
38.16
29.43
16.49
1.03
-14.42
-27.41
-36.10
-38.89
-35.67
-26.77
-14.01
0.97
15.81
28.33
36.88
39.81
36.84
28.02
15.02
-0.51
-15.98
-28.93
-37.55
-40.26
-36.99
-28.06
-15.26
-0.21
14.74
27.41
36.12
39.19
36.34
27.60
14.63
-0.92
-16.47
-29.54
-38.31
-41.10
-37.78
-28.61
-15.39
0.20
15.70
28.79
37.73
40.86
37.94
29.10
16.06
0.55
-14.88
-27.76
-36.31
-38.97
-35.70
-26.86
-14.27
0.48
15.10
27.46
35.95
38.92
36.02
27.29
14.32
-1.20
-16.71
-29.72
-38.40
-41.12
-37.79
-28.67
-15.55
-0.08
15.33
28.41
37.42
40.67
37.86
29.11
16.08
0.49
-15.08
-28.15
-36.86
-39.54
-36.06
-26.72
-13.32
2.40
18.00
31.17
40.20
43.44
40.65
31.93
18.95
3.40
-12.11
-25.08
-33.62
-36.14
-32.62
-23.48
-10.66
4.19
18.78
31.03
39.46
42.48
39.78
31.34
18.72
3.59
-11.46
-23.96
-32.19
-34.75
-31.76
-23.60
-11.92
1.95
16.02
28.32
37.21
40.87
38.74
30.67
18.27
3.29
-11.59
-23.92
-32.07
-34.71
-31.99
-24.27
-13.13
0.13
13.61
25.35
33.86
37.51
35.95
29.22
18.99
6.98
-4.47
-13.48
-19.34
-21.78
-21.69
-19.57
-16.33
-11.97
-6.79
-1.31
4.03
8.04
10.30
10.21
8.33
5.07
1.28
-2.23
-5.31
-7.54
-9.19
-9.93
-9.99
-8.98
-6.82
-3.76
0.10
3.96
7.52
10.07
11.89
12.99
13.65
13.97
13.15
10.62
5.40
-2.20
-11.67
-21.21
-29.00
-33.68
-34.08
-30.35
-22.70
-12.43
-0.49
11.49
21.93
29.43
32.29
29.88
21.83
9.47
-5.61
-20.74
-33.29
-41.37
-43.45
-39.64
-30.40
-17.56
-2.68
12.06
24.62
33.41
36.74
34.22
25.78
12.98
-2.52
-18.10
-31.20
-39.93
-42.60
-39.06
-29.63
-16.14
-0.32
15.36
28.60
37.66
40.89
38.08
29.34
16.38
0.88
-14.61
-27.64
-36.38
-39.19
-35.95
-26.97
-14.06
1.11
16.13
28.78
37.38
40.31
37.31
28.48
15.48
-0.00
-15.41
-28.30
-36.89
-39.61
-36.42
-27.66
-15.10
-0.34
14.32
26.74
35.28
38.26
35.37
26.63
13.66
-1.88
-17.41
-30.46
-39.19
-41.93
-38.55
-29.30
-15.97
-0.24
15.41
28.65
37.74
40.99
38.17
29.41
16.42
0.91
-14.58
-27.58
-36.30
-39.07
-35.81
-26.81
-13.89
1.27
16.28
28.91
37.52
40.47
37.52
28.78
15.90
0.53
-14.78
-27.58
-36.09
-38.72
-35.40
-26.44
-13.63
1.40
16.32
28.92
37.55
40.53
37.57
28.73
15.67
0.11
-15.36
-28.24
-36.76
-39.34
-35.98
-27.05
-14.33
0.57
15.39
27.98
36.70
39.85
37.08
28.38
15.36
-0.27
-15.86
-28.85
-37.35
-39.72
-35.94
-26.41
-13.01
2.54
17.88
30.85
39.84
43.23
40.73
32.34
19.63
4.25
-11.24
-24.29
-33.03
-35.75
-32.35
-23.16
-10.01
5.41
20.74
33.73
42.70
45.99
43.31
34.78
22.16
7.33
-7.09
-18.79
-26.47
-29.23
-27.59
-22.03
-13.89
-3.92
6.62
16.31
23.88
27.59
26.84
21.28
12.22
1.03
-10.17
-19.47
-25.77
-28.09
-26.64
-21.51
-13.80
-4.22
5.95
15.26
22.58
26.46
26.54
22.62
15.94
7.71
-0.32
-6.73
-11.18
-13.51
-14.53
-14.48
-13.89
-12.37
-9.75
-6.18
-1.88
2.09
5.20
6.62
6.61
5.21
3.01
0.58
-2.01
-4.29
-6.43
-7.92
-8.82
-8.63
-7.16
-4.60
-1.00
2.83
6.54
9.32
11.35
12.50
13.00
13.02
11.95
9.49
4.92
-1.38
-8.96
-16.27
-21.83
-24.63
-23.89
-20.12
-13.80
-6.29
1.70
8.97
14.67
18.19
18.68
16.21
10.74
3.43
-4.86
-12.54
-18.25
-21.21
-20.68
-17.07
-10.72
-2.91
5.76
14.18
21.40
26.58
28.25
25.63
18.00
6.24
-8.37
-23.30
-35.93
-44.27
-46.66
-42.99
-33.57
-20.12
-4.22
11.72
25.41
35.02
38.78
36.32
27.75
14.79
-0.80
-16.37
-29.38
-37.96
-40.49
-36.91
-27.58
-14.37
1.01
16.17
28.91
37.60
40.65
37.83
29.23
16.48
1.20
-14.08
-26.92
-35.50
-38.21
-34.99
-26.18
-13.58
1.18
15.79
28.11
36.55
39.46
36.55
27.85
14.99
-0.38
-15.68
-28.45
-36.90
-39.48
-36.15
-27.28
-14.65
0.14
14.83
27.28
35.87
38.95
36.21
27.65
14.87
-0.48
-15.85
-28.76
-37.37
-40.05
-36.68
-27.57
-14.50
0.86
16.09
28.96
37.76
40.87
38.03
29.36
16.52
1.20
-14.02
-26.71
-35.09
-37.64
-34.38
-25.72
-13.49
0.76
14.83
26.71
34.87
37.70
34.85
26.26
13.51
-1.80
-17.09
-29.90
-38.40
-41.01
-37.68
-28.74
-15.98
-0.99
13.91
26.55
35.26
38.38
35.60
26.97
14.12
-1.24
-16.55
-29.31
-37.72
-40.17
-36.65
-27.51
-14.59
0.48
15.39
27.98
36.66
39.78
37.07
28.56
15.84
0.58
-14.69
-27.50
-36.04
-38.71
-35.45
-26.57
-13.89
1.00
15.76
28.25
36.80
39.79
36.91
28.22
15.36
0.02
-15.21
-27.84
-36.10
-38.47
-35.00
-26.12
-13.65
0.83
15.13
27.21
35.55
38.50
35.72
27.16
14.37
-1.05
-16.54
-29.60
-38.37
-41.14
-37.75
-28.44
-15.00
0.86
16.63
29.94
39.03
42.23
39.33
30.52
17.55
2.17
-13.02
-25.55
-33.67
-35.93
-32.44
-23.72
-11.64
2.25
15.86
27.30
35.14
37.80
34.88
26.27
13.45
-1.99
-17.46
-30.45
-39.09
-41.73
-38.26
-28.96
-15.61
0.12
15.81
29.13
38.32
41.66
38.86
30.05
16.98
1.43
-13.91
-26.53
-34.65
-36.84
-33.26
-24.41
-12.18
1.93
15.84
27.66
35.92
39.00
36.44
28.07
15.34
-0.15
-15.77
-28.92
-37.60
-40.08
-36.20
-26.34
-12.39
3.81
19.77
33.16
42.31
45.63
42.90
34.30
21.57
6.53
-8.21
-20.29
-28.24
-30.94
-28.78
-22.19
-12.62
-1.01
11.10
22.05
30.26
33.75
31.73
23.87
11.65
-3.19
-18.02
-30.36
-38.53
-41.04
-37.85
-29.14
-16.46
-1.30
14.12
27.47
36.90
40.59
38.16
29.76
17.30
2.75
-11.18
-22.25
-29.33
-31.71
-30.08
-24.95
-17.63
-8.69
0.78
9.58
16.65
20.45
20.46
16.27
8.93
-0.60
-10.57
-19.27
-25.50
-27.89
-26.23
-20.35
-11.36
-0.22
11.42
21.78
29.52
33.10
32.13
26.42
17.32
6.23
-4.79
-13.88
-20.10
-22.72
-22.24
-18.94
-13.83
-7.28
-0.10
6.78
12.63
16.16
16.99
14.62
9.83
3.22
-3.97
-10.47
-15.53
-18.11
-18.11
-15.18
-10.03
-3.02
4.87
12.42
18.68
22.21
22.58
19.34
13.46
5.86
-1.91
-8.46
-13.27
-15.78
-16.47
-15.34
-12.99
-9.32
-4.64
0.48
5.50
9.16
10.90
9.99
6.87
1.83
-4.13
-9.91
-14.67
-17.20
-17.13
-13.92
-8.23
-0.51
8.07
16.15
22.64
26.07
25.97
21.90
14.94
6.14
-2.77
-10.25
-15.62
-18.33
-18.86
-17.29
-14.35
-10.06
-4.87
0.55
5.64
9.19
10.78
9.76
6.67
1.83
-3.79
-9.09
-13.36
-15.50
-15.32
-12.41
-7.43
-0.74
6.75
13.93
19.91
23.30
23.58
20.20
14.04
6.01
-2.27
-9.29
-14.39
-16.93
-17.36
-15.72
-12.72
-8.40
-3.20
2.23
7.35
10.95
12.56
11.50
8.24
3.10
-2.94
-8.75
-13.54
-16.09
-16.11
-13.13
-7.81
-0.61
7.41
14.97
21.13
24.52
24.74
21.30
15.13
7.08
-1.28
-8.47
-13.76
-16.42
-16.78
-14.82
-11.31
-6.37
-0.57
5.30
10.59
13.98
14.97
12.95
8.57
2.44
-4.18
-10.04
-14.48
-16.65
-16.64
-14.27
-10.22
-4.68
1.67
7.95
13.46
16.94
17.91
15.80
11.34
5.21
-1.26
-6.84
-11.03
-13.31
-14.08
-13.29
-11.48
-8.50
-4.56
-0.08
4.56
8.19
10.29
10.06
7.82
3.73
-1.34
-6.39
-10.73
-13.30
-13.84
-11.85
-7.86
-2.14
4.50
10.98
16.52
19.86
20.60
18.20
13.43
6.96
0.13
-5.80
-10.31
-12.81
-13.69
-12.94
-11.16
-8.23
-4.38
-0.08
4.34
7.74
9.64
9.24
6.91
2.83
-2.12
-6.88
-10.83
-12.96
-13.16
-11.06
-7.26
-1.99
4.04
9.95
15.13
18.39
19.33
17.36
13.17
7.40
1.31
-3.90
-7.88
-10.23
-11.53
-11.78
-11.44
-10.16
-7.85
-4.67
-0.81
2.66
5.19
5.84
4.80
2.05
-1.72
-5.65
-9.19
-11.33
-11.90
-10.39
-7.26
-2.66
2.84
8.39
13.42
16.77
17.99
16.44
12.71
7.37
1.57
-3.56
-7.65
-10.24
-11.77
-12.11
-11.68
-10.16
-7.53
-4.09
-0.08
3.45
6.01
6.73
5.77
3.04
-0.89
-5.17
-9.16
-11.64
-12.18
-10.09
-5.88
0.16
7.12
13.84
19.48
22.70
23.04
19.95
14.25
6.74
-1.13
-7.92
-13.02
-15.75
-16.46
-15.12
-12.37
-8.23
-3.12
2.26
7.31
10.73
11.97
10.34
6.35
0.40
-6.39
-12.76
-17.78
-20.14
-19.50
-15.42
-8.71
-0.01
9.37
17.96
24.65
27.95
27.42
22.68
14.80
4.92
-5.13
-13.59
-19.52
-22.08
-21.62
-18.26
-12.99
-6.20
1.25
8.34
14.25
17.60
17.91
14.64
8.56
0.36
-8.51
-16.47
-22.37
-24.81
-23.48
-18.11
-9.74
0.74
11.74
21.56
28.89
32.17
30.94
24.94
15.44
3.79
-7.88
-17.57
-24.11
-26.53
-25.18
-20.33
-13.22
-4.50
4.65
13.03
19.63
23.00
22.67
18.18
10.48
0.48
-10.07
-19.33
-25.90
-28.25
-26.12
-19.41
-9.43
2.65
14.99
25.73
33.47
36.57
34.63
27.43
16.35
2.89
-10.63
-21.97
-29.66
-32.38
-30.24
-23.41
-13.31
-1.04
11.59
22.69
30.73
33.98
32.01
24.71
13.59
0.17
-13.16
-24.15
-31.24
-33.09
-29.90
-22.18
-11.73
0.06
11.41
20.84
27.40
29.87
28.00
21.51
11.49
-0.91
-13.54
-24.13
-31.01
-32.72
-29.35
-21.32
-10.39
2.10
14.30
24.63
31.96
34.90
33.11
26.26
15.52
2.14
-11.56
-23.17
-30.83
-32.98
-29.65
-21.35
-9.97
2.96
15.45
25.85
33.04
35.63
33.31
25.84
14.46
0.56
-13.45
-25.09
-32.57
-34.41
-30.79
-22.29
-10.82
2.19
14.83
25.47
32.91
35.68
33.33
25.59
13.71
-0.83
-15.50
-27.74
-35.68
-37.77
-34.14
-25.33
-13.23
0.64
14.23
25.74
33.81
36.88
34.54
26.61
14.48
-0.23
-14.92
-27.02
-34.71
-36.58
-32.90
-24.28
-12.66
0.51
13.31
24.11
31.68
34.57
32.41
24.97
13.56
-0.40
-14.47
-26.18
-33.77
-35.73
-32.19
-23.64
-11.94
1.45
14.53
25.57
33.26
36.11
33.76
26.03
14.30
0.05
-14.19
-25.95
-33.51
-35.47
-32.08
-23.93
-12.85
-0.22
12.13
22.59
29.95
32.65
30.23
22.39
10.45
-4.04
-18.47
-30.32
-37.82
-39.63
-36.08
-27.82
-16.74
-4.24
7.81
17.82
24.65
27.03
24.83
18.08
8.20
-3.50
-14.85
-23.91
-29.38
-30.20
-26.79
-19.68
-10.55
-0.54
8.78
16.18
20.88
21.94
19.47
13.53
5.42
-3.81
-12.35
-18.71
-22.00
-21.58
-18.18
-12.51
-6.20
-0.14
4.49
7.08
7.60
6.04
3.42
0.35
-1.93
-3.17
-2.91
-1.22
1.44
4.81
7.89
10.25
10.94
10.06
7.47
3.68
-0.52
-4.64
-7.61
-9.18
-8.66
-6.35
-2.24
3.07
8.65
13.71
16.83
17.41
14.68
9.19
1.38
-7.45
-15.69
-21.94
-24.40
-22.46
-15.73
-5.50
6.92
19.45
30.11
37.52
40.17
37.79
30.21
18.75
4.81
-9.23
-20.94
-28.52
-30.48
-26.96
-18.55
-7.20
5.55
17.76
27.84
34.71
37.03
34.47
26.76
15.11
0.92
-13.32
-25.05
-32.42
-33.98
-30.05
-21.40
-10.10
2.35
14.13
23.87
30.66
33.25
31.30
24.44
13.74
0.47
-12.96
-24.10
-31.14
-32.68
-29.05
-20.96
-10.32
1.51
12.87
22.43
29.23
31.93
30.04
23.13
12.27
-1.24
-14.96
-26.39
-33.70
-35.46
-31.89
-23.60
-12.49
0.06
12.23
22.50
29.70
32.39
30.14
22.63
11.16
-2.84
-16.84
-28.36
-35.68
-37.46
-34.02
-25.97
-15.14
-2.78
9.40
19.91
27.48
30.44
28.13
20.09
7.60
-7.72
-23.05
-35.70
-43.72
-45.69
-41.92
-33.07
-21.14
-7.75
4.87
14.89
21.16
22.78
20.35
14.58
7.30
-0.32
-6.77
-11.04
-12.73
-11.52
-8.24
-3.52
1.20
5.37
8.20
9.46
9.27
7.50
4.71
1.03
-2.65
-6.04
-8.23
-8.80
-7.73
-5.08
-1.90
1.16
2.92
3.16
1.47
-1.84
-5.97
-10.13
-12.74
-12.99
-9.93
-4.08
3.99
12.92
21.17
27.61
30.79
30.26
25.54
17.54
7.14
-3.93
-13.78
-20.95
-23.85
-22.17
-15.81
-6.06
5.87
18.09
28.68
36.21
39.05
36.85
29.44
18.21
4.58
-9.12
-20.57
-28.10
-30.25
-27.13
-19.20
-8.30
4.15
16.23
26.36
33.38
35.89
33.52
25.98
14.53
0.55
-13.47
-25.09
-32.54
-34.42
-30.97
-22.79
-11.73
0.87
13.20
23.72
31.24
34.25
32.28
24.96
13.56
-0.47
-14.59
-26.24
-33.64
-35.41
-31.84
-23.57
-12.48
0.07
12.28
22.62
29.89
32.59
30.26
22.59
10.89
-3.33
-17.51
-29.15
-36.54
-38.37
-34.97
-26.94
-16.06
-3.59
8.74
19.40
27.06
30.04
27.70
19.61
7.13
-8.10
-23.22
-35.57
-43.27
-44.99
-41.17
-32.58
-21.26
-8.78
2.73
11.64
16.96
18.03
15.64
10.65
4.84
-0.81
-5.04
-7.23
-7.32
-5.24
-1.95
1.91
5.00
7.00
7.36
6.20
4.01
1.03
-1.85
-4.34
-5.58
-5.61
-4.04
-1.09
2.68
6.78
9.98
11.68
10.96
7.99
2.77
-3.85
-10.58
-16.08
-18.44
-16.79
-10.52
-0.75
11.24
23.41
33.82
41.10
43.75
41.38
33.71
22.00
7.64
-6.92
-19.12
-27.13
-29.41
-26.17
-18.02
-6.91
5.68
17.85
28.04
35.10
37.59
35.09
27.28
15.40
0.88
-13.75
-25.98
-34.00
-36.33
-33.16
-24.98
-13.62
-0.48
12.50
23.57
31.35
34.24
31.78
23.76
11.63
-2.99
-17.45
-29.24
-36.67
-38.45
-34.97
-26.85
-15.90
-3.36
9.03
19.72
27.38
30.31
27.86
19.62
6.99
-8.29
-23.31
-35.39
-42.72
-44.15
-40.31
-32.15
-21.69
-10.37
-0.02
8.01
12.92
14.06
12.06
7.54
2.10
-3.35
-7.53
-9.72
-9.75
-7.51
-3.97
0.18
3.53
5.64
5.84
4.23
1.40
-2.08
-4.81
-6.11
-4.98
-1.69
3.61
10.00
16.36
21.81
24.98
25.40
22.35
16.38
7.96
-1.52
-10.31
-16.83
-19.25
-17.06
-10.17
-0.12
11.68
23.23
32.85
39.36
41.37
38.51
30.41
18.30
3.61
-11.09
-23.23
-31.01
-33.11
-29.96
-22.31
-12.08
-0.56
10.60
20.08
26.84
29.42
27.29
20.01
8.73
-5.11
-18.95
-30.30
-37.40
-38.98
-35.43
-27.44
-16.86
-4.97
6.49
16.08
22.67
24.92
22.57
15.54
5.27
-6.78
-18.26
-27.10
-32.04
-32.24
-28.46
-21.53
-13.25
-4.69
2.74
8.19
11.20
11.31
9.06
4.83
-0.06
-4.88
-8.40
-9.90
-9.26
-6.50
-2.83
0.88
3.16
3.58
1.61
-2.40
-7.44
-12.31
-14.93
-14.07
-8.67
0.56
12.53
25.16
36.27
44.25
47.39
45.27
37.65
25.87
11.41
-3.32
-15.82
-24.26
-27.08
-24.38
-16.66
-5.85
6.53
18.50
28.41
35.12
37.25
34.51
26.68
15.09
1.17
-12.67
-24.04
-31.37
-33.41
-30.54
-23.34
-13.55
-2.27
8.92
18.65
25.70
28.39
26.02
18.10
5.90
-8.93
-23.58
-35.40
-42.63
-44.07
-40.27
-32.01
-21.22
-9.18
2.31
11.79
18.19
20.32
18.18
11.91
3.07
-7.02
-16.26
-23.00
-26.28
-25.57
-21.72
-15.62
-9.02
-2.90
1.47
3.53
3.38
1.38
-0.98
-2.69
-2.33
0.14
4.74
10.61
16.67
22.05
25.37
26.05
23.30
17.55
9.22
-0.27
-9.08
-15.57
-17.87
-15.53
-8.52
1.53
13.15
24.38
33.62
39.83
41.73
38.98
31.18
19.45
5.08
-9.48
-21.69
-29.75
-32.21
-29.34
-21.76
-11.33
0.60
12.25
22.14
29.10
31.65
29.32
21.78
10.34
-3.52
-17.25
-28.41
-35.37
-36.95
-33.61
-26.05
-16.04
-4.67
6.51
16.17
23.13
25.76
23.38
15.54
3.56
-10.89
-24.97
-36.08
-42.54
-43.35
-39.31
-31.45
-21.83
-11.83
-3.16
3.06
6.39
6.64
4.87
1.95
-0.59
-2.25
-2.36
-0.90
1.79
5.47
9.05
11.85
12.63
11.22
7.33
1.63
-4.63
-10.19
-13.12
-12.50
-7.54
0.87
11.73
23.15
33.21
40.48
43.33
41.39
34.37
23.48
9.99
-3.87
-15.74
-23.84
-26.52
-23.78
-16.01
-5.11
7.34
19.36
29.24
35.81
37.66
34.46
25.99
13.60
-1.19
-15.73
-27.43
-34.58
-35.93
-32.05
-23.84
-13.32
-1.79
9.20
18.44
24.97
27.28
24.72
16.75
4.52
-10.34
-24.93
-36.44
-42.97
-43.43
-38.69
-29.94
-19.45
-8.62
1.00
8.50
13.41
15.05
13.60
9.06
2.52
-5.19
-12.39
-17.64
-20.02
-18.91
-15.13
-9.53
-3.84
1.00
3.93
4.68
3.64
1.31
-0.87
-2.11
-1.30
1.42
6.01
11.71
17.56
22.76
25.90
26.33
23.17
16.85
7.91
-2.11
-11.29
-17.98
-20.38
-18.12
-11.22
-1.26
10.31
21.57
30.87
37.18
39.25
36.81
29.56
18.60
5.18
-8.39
-19.70
-27.01
-28.93
-25.84
-18.48
-8.81
1.84
11.89
20.23
26.08
28.25
26.31
19.74
9.53
-3.12
-15.85
-26.23
-32.60
-33.76
-30.26
-22.88
-13.50
-3.18
6.72
15.16
21.26
23.55
21.39
14.14
2.90
-10.87
-24.49
-35.41
-41.88
-42.79
-38.77
-30.73
-20.68
-9.98
-0.43
6.73
10.86
11.51
9.51
5.55
1.21
-2.78
-5.36
-6.07
-4.92
-1.97
1.68
5.26
7.35
7.59
5.48
1.47
-3.40
-8.00
-10.52
-10.04
-5.73
1.66
11.30
21.55
30.71
37.50
40.39
38.94
32.73
22.82
10.31
-2.71
-14.01
-21.88
-24.71
-22.43
-15.35
-5.25
6.41
17.72
27.08
33.42
35.41
32.78
25.24
14.05
0.55
-12.82
-23.67
-30.37
-31.77
-28.42
-21.15
-11.88
-1.73
7.92
16.10
22.01
24.28
22.27
15.30
4.32
-9.36
-23.10
-34.26
-40.95
-41.89
-37.63
-29.11
-18.44
-7.03
3.33
11.43
16.53
17.83
15.64
10.23
3.06
-4.78
-11.58
-16.04
-17.57
-15.93
-12.18
-7.25
-2.79
0.57
2.08
1.76
0.13
-2.35
-4.46
-5.62
-4.89
-2.47
1.67
6.85
12.23
17.15
20.33
21.24
19.06
14.15
6.83
-1.64
-9.54
-15.34
-17.24
-14.84
-8.11
1.33
12.08
22.35
30.74
36.42
38.28
35.98
29.02
18.31
4.93
-8.81
-20.37
-27.89
-29.86
-26.58
-18.78
-8.47
2.95
13.79
22.80
29.13
31.48
29.45
22.57
11.89
-1.33
-14.68
-25.71
-32.72
-34.37
-31.08
-23.48
-13.41
-2.01
9.14
18.76
25.71
28.37
26.06
18.21
6.05
-8.85
-23.66
-35.68
-43.06
-44.59
-40.82
-32.59
-21.92
-10.19
0.73
9.43
14.98
16.48
14.33
8.96
1.98
-5.51
-11.88
-16.02
-17.42
-15.80
-12.10
-7.10
-2.37
1.36
3.13
2.74
0.65
-2.53
-5.15
-6.21
-4.48
-0.19
6.33
13.91
21.18
27.10
30.24
30.12
26.10
18.89
9.18
-1.43
-10.98
-17.87
-20.32
-18.00
-10.94
-0.77
11.07
22.60
32.15
38.63
40.75
38.25
30.83
19.65
5.98
-7.87
-19.52
-27.24
-29.62
-26.93
-19.75
-9.89
1.39
12.45
21.90
28.67
31.26
29.10
21.70
10.22
-3.89
-18.08
-29.79
-37.23
-39.00
-35.38
-26.94
-15.49
-2.35
10.60
21.71
29.62
32.68
30.37
22.39
10.16
-4.68
-19.40
-31.40
-38.93
-40.70
-37.14
-28.97
-18.10
-5.91
5.74
15.31
21.66
23.59
21.09
14.32
4.86
-5.89
-15.76
-23.00
-26.65
-26.20
-22.58
-16.70
-10.30
-4.18
0.58
3.52
4.59
3.61
1.33
-1.84
-4.75
-7.00
-7.83
-7.05
-4.87
-1.49
2.03
5.12
6.62
6.35
3.88
-0.40
-5.54
-10.45
-13.18
-12.67
-7.91
0.38
11.29
22.92
33.27
40.82
43.82
41.79
34.40
22.92
8.78
-5.64
-17.86
-26.07
-28.66
-25.67
-17.55
-6.20
6.79
19.36
29.75
36.78
39.10
36.44
28.66
17.05
2.99
-11.17
-23.05
-30.94
-33.33
-30.34
-22.41
-11.29
1.64
14.44
25.41
33.21
36.23
34.01
26.29
14.44
0.05
-14.26
-25.94
-33.25
-34.92
-31.34
-23.26
-12.56
-0.59
10.96
20.68
27.53
30.14
28.12
21.13
10.38
-2.81
-16.04
-26.95
-33.87
-35.47
-32.05
-24.19
-13.69
-1.81
9.75
19.58
26.57
29.30
27.28
20.15
9.09
-4.50
-18.11
-29.28
-36.27
-37.78
-34.21
-26.25
-15.80
-4.16
6.97
16.22
22.60
24.86
22.78
16.21
6.42
-5.30
-16.77
-25.96
-31.49
-32.31
-28.82
-21.63
-12.45
-2.48
6.59
13.52
17.58
18.09
15.52
10.31
3.91
-2.75
-8.26
-11.70
-12.71
-11.11
-7.84
-3.62
0.13
2.95
4.19
3.86
2.38
-0.04
-2.48
-4.64
-5.70
-5.74
-4.47
-2.06
1.06
4.63
7.67
9.77
10.05
8.61
5.34
0.86
-3.95
-8.36
-11.11
-11.77
-9.66
-5.29
1.03
8.31
15.35
21.17
24.30
24.15
20.11
12.93
3.33
-7.05
-16.41
-23.31
-26.04
-24.16
-17.38
-6.94
5.89
19.04
30.43
38.47
41.51
39.23
31.55
19.95
5.94
-8.15
-20.00
-27.95
-30.49
-27.69
-19.93
-8.99
3.66
16.06
26.48
33.66
36.11
33.49
25.56
13.67
-0.68
-14.98
-26.71
-34.09
-35.70
-31.80
-23.04
-11.37
1.72
14.32
24.88
32.27
35.15
33.18
26.09
15.11
1.57
-12.12
-23.53
-30.91
-32.83
-29.53
-21.62
-10.97
1.06
12.73
22.62
29.65
32.44
30.53
23.50
12.52
-1.08
-14.86
-26.33
-33.70
-35.49
-31.93
-23.60
-12.39
0.29
12.53
22.79
29.95
32.67
30.65
23.66
12.92
-0.26
-13.54
-24.60
-31.72
-33.50
-30.12
-22.13
-11.34
0.89
12.75
22.74
29.74
32.32
30.09
22.71
11.41
-2.42
-16.31
-27.72
-34.86
-36.29
-32.32
-23.66
-12.32
0.22
12.14
21.99
28.82
31.35
29.27
22.26
11.48
-1.81
-15.29
-26.55
-33.82
-35.64
-32.15
-23.86
-12.58
0.30
12.89
23.56
31.06
33.87
31.56
23.83
11.99
-2.45
-16.92
-28.83
-36.33
-37.98
-34.04
-25.20
-13.44
-0.27
12.39
22.95
30.25
32.91
30.56
22.97
11.46
-2.52
-16.47
-27.95
-35.24
-36.99
-33.51
-25.42
-14.58
-2.41
9.18
18.60
24.78
26.61
24.22
17.80
8.85
-1.40
-11.03
-18.42
-22.57
-22.69
-19.35
-13.15
-5.72
2.03
8.80
13.77
16.59
16.67
14.33
9.63
3.58
-3.20
-9.42
-14.02
-16.32
-15.67
-12.56
-7.37
-1.43
4.55
9.46
12.64
13.89
12.84
10.09
5.90
1.39
-2.97
-6.20
-7.75
-7.55
-5.47
-2.39
1.21
4.21
6.41
7.36
7.13
6.01
3.89
1.28
-1.89
-4.89
-7.59
-9.23
-9.44
-8.22
-5.56
-2.38
0.83
3.04
4.11
3.65
1.84
-0.80
-3.94
-6.52
-8.13
-7.92
-6.08
-2.50
2.28
7.41
12.26
15.51
16.65
14.91
10.82
4.83
-1.90
-8.09
-12.99
-15.59
-15.85
-13.49
-9.22
-3.32
3.36
9.81
15.25
18.37
18.75
15.81
10.23
2.58
-5.82
-13.52
-19.41
-22.10
-21.23
-16.48
-8.80
0.99
11.37
20.69
27.71
30.87
29.76
24.06
14.95
3.58
-8.07
-18.07
-25.08
-27.75
-25.97
-19.73
-10.27
1.37
13.41
24.03
31.73
34.85
32.98
26.00
15.31
2.32
-10.73
-21.65
-28.92
-31.14
-28.39
-21.03
-10.78
1.00
12.48
22.08
28.76
31.23
29.25
22.56
12.32
-0.31
-13.15
-23.92
-30.93
-32.66
-29.15
-20.86
-9.58
3.23
15.63
26.00
33.18
35.75
33.37
25.76
14.16
-0.08
-14.46
-26.41
-34.03
-35.77
-31.83
-22.92
-11.14
1.90
14.23
24.34
31.23
33.64
31.31
23.94
12.71
-1.08
-14.99
-26.49
-33.72
-35.17
-31.09
-22.17
-10.45
2.52
14.83
25.01
32.02
34.59
32.39
25.10
13.87
0.03
-14.01
-25.72
-33.25
-35.07
-31.41
-22.91
-11.56
1.12
13.26
23.35
30.37
33.02
30.98
23.94
13.06
-0.38
-13.98
-25.26
-32.40
-33.89
-29.94
-21.21
-9.67
3.16
15.42
25.60
32.68
35.33
33.23
26.04
14.94
1.24
-12.67
-24.33
-31.95
-34.05
-30.82
-22.82
-11.91
0.49
12.51
22.62
29.69
32.35
30.25
23.12
12.17
-1.29
-14.88
-26.17
-33.42
-35.13
-31.47
-23.01
-11.61
1.27
13.73
24.18
31.44
34.12
31.84
24.35
12.91
-1.05
-15.08
-26.70
-34.15
-35.98
-32.41
-24.00
-12.64
0.24
12.72
23.20
30.48
33.16
30.89
23.43
12.06
-1.83
-15.78
-27.35
-34.72
-36.43
-32.65
-23.96
-12.31
0.81
13.43
23.94
31.20
33.87
31.68
24.41
13.31
-0.26
-13.92
-25.25
-32.52
-34.30
-30.80
-22.61
-11.62
0.77
12.73
22.74
29.73
32.33
30.22
23.10
12.18
-1.24
-14.82
-26.18
-33.57
-35.52
-32.13
-23.85
-12.46
0.65
13.55
24.52
32.23
35.12
32.74
24.82
12.74
-1.96
-16.67
-28.78
-36.43
-38.14
-34.15
-25.14
-13.13
0.30
13.10
23.62
30.71
33.07
30.53
23.01
11.92
-1.34
-14.41
-25.05
-31.70
-33.12
-29.65
-21.86
-11.56
-0.00
11.08
20.32
26.70
28.98
26.90
20.24
10.17
-2.12
-14.43
-24.63
-31.14
-32.61
-29.25
-21.51
-11.16
0.44
11.38
20.11
25.63
26.98
24.39
18.14
9.72
0.24
-8.55
-15.20
-18.88
-18.86
-15.69
-9.91
-3.01
4.20
10.58
15.38
18.27
18.51
16.19
11.09
4.11
-4.14
-12.13
-18.48
-22.19
-22.33
-19.21
-13.17
-5.64
2.51
9.89
15.51
18.83
19.20
16.91
12.09
5.85
-1.08
-7.32
-11.76
-13.76
-12.81
-9.59
-4.69
0.47
5.30
8.97
11.21
12.05
11.17
8.91
5.13
0.59
-4.43
-8.87
-11.88
-12.99
-11.70
-8.62
-4.15
0.51
4.89
8.15
9.97
10.35
9.04
6.53
2.93
-0.87
-4.53
-7.14
-8.14
-7.46
-5.06
-1.89
1.44
3.78
5.02
4.92
3.81
2.22
0.19
-1.82
-4.03
-5.98
-7.77
-8.79
-8.68
-7.35
-4.69
-1.52
1.70
3.93
5.07
4.76
3.28
1.15
-1.45
-3.77
-5.70
-6.60
-6.59
-5.32
-2.86
0.39
4.20
7.53
9.91
10.44
9.29
6.48
2.65
-1.34
-5.07
-7.67
-9.09
-8.82
-7.22
-4.19
-0.11
4.38
8.77
11.91
13.30
12.21
9.00
3.93
-2.10
-7.97
-12.90
-15.68
-16.03
-13.40
-8.44
-1.54
6.25
13.65
19.65
22.83
22.72
18.82
12.03
3.18
-6.13
-14.29
-20.23
-22.74
-21.75
-17.13
-9.87
-0.67
9.12
18.02
24.83
27.97
26.96
21.42
12.47
1.20
-10.43
-20.43
-27.35
-29.71
-27.35
-20.33
-10.09
2.12
14.40
24.95
32.43
35.30
33.22
26.01
15.00
1.58
-11.90
-23.13
-30.47
-32.46
-29.25
-21.27
-10.27
2.33
14.62
24.94
32.13
34.78
32.64
25.48
14.57
1.20
-12.32
-23.61
-30.93
-32.78
-29.29
-21.04
-9.95
2.47
14.32
24.12
30.86
33.28
31.12
24.06
13.23
-0.13
-13.65
-24.88
-31.97
-33.41
-29.44
-20.73
-9.31
3.31
15.27
25.13
31.93
34.36
32.11
24.80
13.58
-0.24
-14.20
-25.77
-33.08
-34.71
-30.98
-22.63
-11.70
0.36
11.78
21.23
27.83
30.39
28.60
22.11
11.95
-0.72
-13.68
-24.56
-31.61
-33.34
-29.91
-21.85
-11.01
1.23
13.05
22.99
29.99
32.71
30.79
23.86
13.07
-0.35
-14.02
-25.50
-32.93
-34.77
-31.17
-22.70
-11.35
1.36
13.50
23.53
30.41
32.89
30.70
23.59
12.74
-0.58
-14.01
-25.14
-32.18
-33.68
-29.91
-21.52
-10.51
1.65
13.16
22.62
29.14
31.56
29.62
23.03
12.84
0.18
-12.76
-23.70
-30.90
-32.85
-29.63
-21.69
-10.81
1.61
13.70
23.86
30.92
33.45
31.08
23.50
11.98
-2.10
-16.24
-27.90
-35.22
-36.70
-32.60
-23.63
-11.87
1.11
13.35
23.35
30.14
32.48
30.16
22.93
11.99
-1.39
-14.84
-25.99
-33.09
-34.72
-31.14
-22.96
-12.05
0.19
11.96
21.82
28.74
31.39
29.41
22.47
11.68
-1.71
-15.35
-26.80
-34.20
-35.96
-32.18
-23.38
-11.53
1.79
14.54
25.06
32.25
34.86
32.71
25.64
14.89
1.70
-11.66
-22.90
-30.29
-32.35
-29.21
-21.34
-10.56
1.73
13.65
23.61
30.47
32.85
30.42
22.91
11.55
-2.29
-16.18
-27.65
-34.86
-36.32
-32.29
-23.44
-11.84
0.94
12.97
22.76
29.40
31.72
29.56
22.69
12.22
-0.66
-13.71
-24.60
-31.56
-33.10
-29.41
-21.06
-9.99
2.33
14.06
23.74
30.39
32.76
30.55
23.42
12.49
-0.96
-14.55
-25.80
-32.84
-34.21
-30.19
-21.55
-10.38
1.77
13.07
22.21
28.42
30.63
28.66
22.15
12.11
-0.41
-13.24
-24.02
-30.93
-32.45
-28.74
-20.40
-9.42
2.69
14.10
23.42
29.81
32.11
30.08
23.39
13.07
0.22
-12.94
-24.06
-31.34
-33.23
-29.86
-21.76
-10.81
1.52
13.34
23.14
29.88
32.29
30.10
23.00
12.13
-1.27
-14.89
-26.27
-33.53
-35.10
-31.10
-22.16
-10.31
2.85
15.33
25.56
32.50
34.91
32.50
25.02
13.68
-0.21
-14.21
-25.82
-33.21
-34.90
-31.13
-22.54
-11.14
1.59
13.73
23.79
30.74
33.31
31.23
24.24
13.50
0.25
-13.22
-24.55
-31.98
-33.97
-30.62
-22.38
-11.08
1.84
14.43
25.01
32.36
35.06
32.75
25.21
13.74
-0.27
-14.35
-26.04
-33.53
-35.37
-31.73
-23.23
-11.81
1.05
13.39
23.63
30.67
33.18
30.89
23.58
12.51
-0.98
-14.55
-25.84
-33.16
-35.06
-31.72
-23.62
-12.55
0.12
12.49
22.95
30.27
33.01
30.80
23.41
12.15
-1.57
-15.32
-26.67
-33.91
-35.61
-32.01
-23.70
-12.55
-0.00
12.07
22.12
29.06
31.56
29.34
22.17
11.32
-1.92
-15.19
-26.19
-33.26
-35.00
-31.66
-23.74
-13.10
-1.13
10.25
19.49
25.53
27.29
24.88
18.45
9.43
-1.00
-10.95
-18.75
-23.32
-23.75
-20.47
-13.98
-5.90
2.77
10.60
16.60
20.21
20.66
18.16
12.76
5.58
-2.58
-10.20
-15.97
-19.10
-18.86
-15.76
-10.23
-3.69
3.11
8.98
13.14
15.23
14.72
12.04
7.38
1.90
-3.75
-8.38
-11.19
-11.91
-10.29
-7.16
-3.06
0.80
4.05
6.04
6.66
6.07
4.17
1.60
-1.50
-4.26
-6.50
-7.54
-7.15
-5.49
-2.63
0.46
3.28
4.82
5.05
3.69
1.09
-2.07
-5.40
-7.87
-9.18
-8.65
-6.58
-2.94
1.74
6.70
11.34
14.45
15.52
13.78
9.72
3.76
-2.96
-9.10
-13.82
-16.05
-15.74
-12.67
-7.63
-1.03
6.21
13.06
18.70
21.78
21.80
18.14
11.50
2.55
-7.19
-15.99
-22.51
-25.10
-23.34
-16.92
-7.03
5.18
17.79
28.82
36.76
39.92
37.90
30.52
19.22
5.47
-8.35
-19.94
-27.67
-30.11
-27.36
-19.78
-9.08
3.37
15.65
26.04
33.30
36.01
33.87
26.73
15.90
2.69
-10.60
-21.71
-29.01
-31.07
-28.06
-20.47
-10.07
1.80
13.37
23.16
30.11
32.82
30.88
23.93
13.11
-0.26
-13.78
-25.00
-32.14
-33.80
-30.23
-22.06
-11.18
1.05
12.85
22.82
29.95
32.90
31.28
24.71
14.28
1.22
-12.15
-23.42
-30.83
-32.86
-29.65
-21.67
-10.75
1.76
13.98
24.33
31.61
34.30
31.99
24.36
12.70
-1.50
-15.67
-27.26
-34.49
-35.99
-32.16
-23.72
-12.66
-0.40
11.31
21.06
27.84
30.35
28.22
21.15
10.31
-3.00
-16.41
-27.55
-34.72
-36.51
-33.12
-25.07
-14.12
-1.58
10.76
21.27
28.71
31.49
29.09
21.22
9.19
-5.43
-20.00
-31.92
-39.39
-41.01
-37.13
-28.41
-16.81
-3.78
8.77
19.24
26.45
29.04
26.78
19.55
8.76
-4.16
-16.83
-27.07
-33.36
-34.58
-31.13
-23.65
-13.93
-3.25
6.62
14.32
19.00
19.86
17.36
11.88
4.97
-2.41
-8.74
-12.99
-14.71
-13.53
-10.28
-5.59
-0.86
3.34
6.19
7.42
7.21
5.54
3.15
0.27
-2.19
-4.12
-4.93
-4.44
-2.82
-0.10
2.80
5.42
6.71
6.59
4.72
1.48
-2.41
-6.34
-9.06
-10.08
-8.63
-5.08
0.36
6.85
13.29
18.82
22.01
22.30
18.98
12.70
4.12
-5.32
-13.93
-20.41
-23.15
-21.69
-15.69
-6.25
5.53
17.72
28.36
35.97
38.98
37.13
30.32
19.90
7.15
-5.83
-16.90
-24.46
-26.95
-24.35
-16.94
-6.45
5.68
17.53
27.45
34.26
36.54
33.94
26.17
14.48
0.30
-13.86
-25.46
-32.69
-34.15
-30.20
-21.58
-10.28
2.27
14.27
24.32
31.41
34.16
32.13
24.91
13.63
-0.36
-14.58
-26.49
-34.24
-36.34
-32.99
-24.73
-13.44
-0.50
12.21
23.09
30.90
34.13
32.29
25.05
13.68
-0.38
-14.58
-26.40
-34.00
-35.91
-32.32
-23.77
-12.14
1.10
13.98
24.83
32.37
35.15
32.85
25.28
13.80
-0.13
-14.05
-25.56
-32.96
-34.87
-31.52
-23.45
-12.49
0.01
12.20
22.48
29.66
32.24
29.86
22.26
10.80
-3.07
-16.86
-28.17
-35.36
-37.14
-33.80
-25.92
-15.26
-3.05
8.97
19.31
26.71
29.57
27.33
19.59
7.66
-6.91
-21.46
-33.41
-40.96
-42.76
-39.13
-30.68
-19.35
-6.59
5.55
15.40
21.79
23.70
21.40
15.32
7.10
-2.05
-10.35
-16.45
-19.62
-19.27
-16.05
-10.55
-4.29
1.96
7.06
10.38
11.72
10.70
7.91
3.61
-1.07
-5.58
-8.87
-10.37
-9.99
-7.68
-4.44
-0.87
1.78
3.25
3.02
1.29
-1.34
-4.38
-6.60
-7.52
-6.33
-3.41
1.12
6.51
11.87
16.64
19.67
20.57
18.61
14.21
7.63
-0.03
-7.40
-13.30
-16.12
-15.30
-10.31
-2.03
8.69
20.16
30.53
38.24
41.41
39.38
31.78
19.95
5.46
-9.19
-21.51
-29.72
-32.27
-29.18
-20.84
-9.09
4.51
17.85
29.07
36.84
39.72
37.46
29.92
18.45
4.48
-9.59
-21.35
-29.03
-31.16
-27.96
-20.02
-9.27
2.85
14.49
24.20
30.94
33.44
31.42
24.56
13.98
0.83
-12.69
-24.33
-32.32
-35.09
-32.48
-24.70
-13.37
0.02
13.21
24.11
31.07
32.50
28.26
18.74
5.86
-8.56
-22.24
-33.39
-40.92
-44.19
-43.52
-39.38
-32.84
-24.66
-15.83
-7.03
0.98
6.65
7.60
0.26
-18.46
-50.28
-94.09
-145.88
-200.40
-252.61
-299.30
-338.75
-370.35
-392.68
-403.34
-399.48
-378.91
-341.38
-288.42
-223.48
-150.54
-73.77
1.44
72.00
136.28
193.45
242.72
283.25
314.13
334.77
345.32
347.00
342.19
333.37
322.48
310.15
295.79
278.49
256.93
230.33
199.22
165.71
132.40
101.77
74.76
50.90
28.22
4.25
-22.93
-54.27
-88.80
-124.81
-159.61
-190.30
-213.62
-226.67
-227.61
-216.22
-194.91
-167.62
-139.06
-112.28
-88.08
-64.91
-40.85
-15.59
9.17
30.15
45.07
53.88
59.52
65.97
75.91
88.88
100.94
106.90
102.33
86.11
60.75
32.22
7.98
-5.50
-4.55
9.82
32.53
55.69
72.10
77.34
71.12
56.61
37.56
16.41
-7.57
-36.75
-73.26
-115.88
-159.23
-195.32
-216.48
-219.00
-204.37
-178.85
-150.11
-124.15
-103.21
-86.17
-70.67
-55.63
-42.48
-34.31
-34.02
-42.20
-56.53
-72.73
-86.40
-94.85
-97.58
-96.14
-92.58
-88.37
-83.54
-76.64
-65.77
-49.54
-28.21
-3.80
20.55
41.71
57.85
69.03
77.21
84.83
94.01
105.27
117.82
130.23
141.87
153.46
166.57
182.42
200.49
219.08
236.23
251.27
265.09
278.71
291.35
299.22
296.93
280.18
248.97
208.14
165.44
127.86
98.43
76.02
56.84
37.92
18.51
-0.07
-16.67
-32.13
-48.74
-68.87
-92.05
-113.89
-126.73
-122.90
-98.36
-55.28
-2.06
49.65
88.93
109.95
113.18
104.52
91.78
81.08
74.93
71.81
67.91
58.82
41.51
15.36
-16.77
-48.43
-70.88
-75.35
-57.58
-20.16
26.77
69.18
94.29
95.22
72.72
32.60
-17.69
-72.27
-126.96
-177.41
-217.08
-237.47
-231.05
-195.06
-134.22
-60.09
12.03
68.27
100.10
105.66
88.65
55.02
10.53
-40.28
-93.24
-143.25
-183.76
-207.99
-211.54
-194.26
-161.28
-121.00
-82.15
-51.13
-30.89
-21.40
-20.98
-28.10
-41.22
-59.38
-81.64
-106.77
-133.56
-160.92
-188.10
-214.07
-237.69
-257.19
-270.33
-275.13
-268.97
-249.57
-216.06
-170.50
-118.61
-69.14
-31.29
-11.40
-10.21
-22.03
-37.34
-46.46
-42.96
-24.84
6.47
48.03
96.47
147.95
197.55
239.15
267.08
278.55
275.30
263.53
251.41
245.81
249.50
261.26
277.06
292.44
304.10
310.29
310.39
304.18
291.66
273.10
249.38
221.79
192.06
161.90
132.54
104.73
78.64
54.15
31.14
9.72
-9.74
-26.69
-40.71
-51.67
-59.82
-65.77
-70.22
-73.76
-76.68
-78.99
-80.43
-80.78
-79.97
-78.14
-75.64
-72.87
-70.16
-67.64
-65.27
-62.87
-60.26
-57.35
-54.15
-50.79
-47.42
-44.18
-41.12
-38.25
-35.54
-32.95
-30.46
-28.05
-25.74
-23.54
-21.44
-19.42
-17.48
-15.63
-13.91
-12.34
-10.88
-9.57
-8.39
-7.27
-6.14
-4.98
-3.77
-2.58
-1.44
-0.41
0.52
1.40
2.31
3.36
4.59
5.99
7.44
8.83
10.07
11.16
12.21
13.40
14.93
16.89
19.22
21.62
23.77
25.45
26.64
27.60
28.82
30.75
33.62
37.28
41.01
44.03
45.70
45.73
44.38
42.27
40.00
37.77
35.12
30.84
23.71
12.93
-1.37
-18.05
-35.28
-51.34
-65.04
-75.51
-83.73
-90.81
-97.71
-105.25
-114.03
-124.11
-134.40
-142.50
-143.92
-134.54
-112.36
-79.21
-40.74
-4.46
23.28
39.63
45.81
45.75
43.37
41.01
38.97
36.49
33.15
29.54
26.99
26.53
28.17
30.73
32.64
32.58
30.26
26.44
22.51
19.82
19.05
19.99
21.68
22.92
22.85
21.28
18.70
16.01
14.05
13.26
13.52
14.29
14.88
14.79
13.91
12.48
10.98
9.81
9.20
9.06
9.14
9.11
8.74
7.99
7.00
5.98
5.11
4.45
3.94
3.41
2.68
1.66
0.31
-1.28
-3.05
-4.91
-6.89
-9.04
-11.50
-14.37
-17.74
-21.63
-25.97
-30.66
-35.61
-40.83
-46.46
-52.71
-59.81
-67.81
-76.53
-85.49
-94.11
-101.85
-108.43
-113.99
-118.99
-123.86
-128.78
-133.50
-137.27
-139.16
-138.50
-135.13
-129.62
-123.06
-116.36
-109.71
-102.38
-92.82
-79.24
-60.50
-36.58
-9.10
19.43
46.17
69.06
87.41
101.93
114.63
128.36
146.45
171.43
203.88
241.03
276.52
301.87
309.59
296.54
265.23
224.05
183.19
150.53
128.82
115.72
106.69
97.69
86.66
72.62
54.71
30.93
-0.21
-37.13
-74.27
-103.47
-117.59
-113.52
-94.09
-66.07
-37.57
-14.81
-1.02
3.01
-1.83
-13.52
-27.98
-39.21
-40.04
-25.41
4.47
42.61
76.84
94.73
88.29
57.95
12.47
-33.94
-66.91
-76.99
-62.66
-31.11
5.17
32.63
42.27
33.02
11.18
-13.52
-33.09
-44.30
-48.91
-50.11
-49.40
-44.83
-32.96
-12.11
15.28
42.65
62.69
70.45
65.38
50.12
28.50
3.57
-22.93
-49.19
-72.76
-90.44
-100.19
-101.90
-98.67
-95.36
-96.02
-102.63
-114.43
-129.88
-148.07
-169.26
-193.92
-221.00
-247.07
-266.42
-273.37
-262.73
-231.75
-181.25
-116.35
-45.57
21.05
74.97
112.15
133.79
146.03
156.54
170.86
190.21
211.46
228.97
237.06
232.70
215.55
188.20
155.46
123.11
96.65
79.43
71.64
69.99
69.62
66.09
56.99
42.02
21.87
-2.77
-31.51
-63.29
-95.70
-124.93
-147.13
-160.30
-165.18
-165.08
-163.78
-164.18
-166.54
-168.92
-168.56
-163.08
-151.38
-133.32
-109.79
-81.65
-50.14
-16.25
19.20
55.88
94.20
134.30
175.76
215.85
250.22
273.59
282.41
276.49
259.01
235.10
209.38
184.70
161.82
140.96
123.50
111.95
108.79
113.62
122.44
128.15
123.57
104.65
71.98
30.36
-13.91
-55.11
-90.57
-119.77
-143.74
-163.29
-178.56
-188.94
-193.71
-193.22
-188.25
-180.52
-171.13
-160.77
-149.22
-135.66
-119.49
-100.41
-79.15
-56.92
-35.32
-15.75
0.90
14.37
25.19
34.06
41.67
48.44
54.86
61.37
68.66
77.48
88.17
100.86
114.63
127.98
138.68
144.90
145.27
139.93
129.82
115.81
98.46
77.20
50.72
17.75
-21.29
-63.39
-103.07
-133.39
-148.47
-145.18
-124.32
-89.95
-48.14
-5.74
30.52
54.14
59.87
44.99
11.04
-35.76
-85.84
-129.20
-159.15
-173.58
-174.88
-167.11
-154.05
-137.61
-118.56
-97.79
-76.68
-57.04
-39.53
-23.38
-6.35
14.23
40.62
74.11
114.17
158.27
201.04
235.46
254.14
252.36
229.78
190.92
143.45
94.76
50.16
11.62
-20.02
-43.34
-55.37
-52.59
-34.16
-3.61
31.01
60.77
79.72
87.67
89.57
91.83
97.95
106.03
110.40
105.27
89.41
67.41
47.74
38.60
43.55
60.03
80.16
94.21
93.64
73.94
35.68
-15.48
-69.36
-113.73
-137.11
-133.53
-104.69
-60.64
-17.21
9.12
6.35
-28.67
-89.59
-162.98
-233.29
-287.72
-319.67
-329.75
-322.36
-305.15
-285.66
-269.49
-259.49
-256.61
-260.76
-271.05
-286.31
-304.25
-321.86
-335.41
-341.83
-339.59
-328.95
-312.99
-294.38
-275.22
-255.92
-236.14
-214.43
-189.24
-159.59
-125.15
-85.84
-40.80
11.47
72.40
141.54
215.40
287.23
348.59
392.58
416.68
423.89
420.90
414.97
410.85
409.43
408.78
405.97
399.20
388.00
372.95
354.28
331.48
303.92
271.50
235.45
197.93
161.85
129.43
101.78
78.58
58.51
40.00
21.98
4.31
-12.32
-26.76
-38.07
-45.97
-50.96
-54.11
-56.56
-59.10
-61.93
-64.72
-66.84
-67.79
-67.37
-65.80
-63.57
-61.21
-59.09
-57.30
-55.71
-54.03
-52.08
-49.73
-47.06
-44.22
-41.40
-38.72
-36.25
-33.95
-31.78
-29.72
-27.74
-25.82
-23.99
-22.25
-20.62
-19.09
-17.67
-16.26
-14.91
-13.66
-12.52
-11.47
-10.53
-9.67
-8.88
-8.15
-7.47
-6.86
-6.36
-5.96
-5.70
-5.52
-5.35
-5.11
-4.76
-4.31
-3.84
-3.45
-3.21
-3.16
-3.22
-3.30
-3.26
-3.05
-2.68
-2.27
-1.98
-1.95
-2.22
-2.69
-3.13
-3.28
-2.99
-2.31
-1.51
-1.01
-1.19
-2.11
-3.52
-4.84
-5.42
-4.88
-3.33
-1.46
-0.23
-0.46
-2.33
-5.26
-8.04
-9.35
-8.44
-5.58
-2.03
0.45
0.41
-2.47
-7.18
-11.70
-13.93
-12.84
-8.81
-3.68
0.39
1.73
-0.12
-4.65
-10.99
-17.94
-23.53
-24.48
-16.95
1.39
28.90
59.07
82.41
90.52
80.48
56.39
27.39
2.96
-11.52
-16.45
-16.21
-15.46
-16.27
-17.53
-16.83
-12.91
-6.87
-1.52
0.48
-1.92
-7.42
-13.35
-16.75
-16.06
-11.65
-5.56
-0.51
1.33
-0.69
-5.45
-10.68
-13.95
-13.80
-10.37
-5.25
-0.72
1.27
-0.02
-3.84
-8.29
-11.25
-11.43
-8.77
-4.40
-0.02
3.05
4.13
3.19
0.36
-4.11
-9.34
-13.52
-13.87
-7.70
6.07
25.58
46.35
62.78
70.23
67.60
56.85
41.75
26.00
12.01
0.71
-7.65
-12.86
-14.67
-13.20
-9.72
-6.09
-4.35
-5.42
-8.94
-13.36
-16.56
-16.57
-11.93
-2.68
9.51
21.11
27.83
26.17
15.35
-1.72
-19.40
-31.36
-33.78
-26.79
-14.09
-0.38
10.90
18.73
24.36
29.10
33.16
35.13
32.79
24.18
8.61
-12.80
-36.92
-58.26
-71.15
-71.18
-57.27
-32.63
-4.02
21.08
37.50
44.19
44.10
41.58
40.00
40.40
42.02
43.86
45.91
48.55
51.12
51.03
44.15
27.12
-0.15
-33.62
-66.38
-90.89
-102.26
-99.72
-86.00
-65.77
-43.60
-22.80
-5.39
7.59
15.90
19.79
19.80
16.84
11.45
3.73
-6.43
-18.81
-33.85
-51.35
-70.29
-88.41
-101.88
-106.26
-98.02
-76.57
-45.35
-11.07
19.01
39.85
50.39
53.29
52.66
51.63
51.04
49.58
45.72
39.26
31.75
25.79
23.88
27.24
35.26
45.12
51.94
50.63
37.71
13.24
-18.25
-49.01
-71.15
-79.64
-74.54
-60.60
-44.43
-31.79
-25.78
-26.97
-34.46
-46.64
-61.21
-74.19
-81.82
-80.89
-70.83
-54.36
-36.48
-22.45
-15.54
-15.98
-21.64
-29.76
-38.27
-46.37
-53.53
-59.11
-61.79
-60.40
-54.71
-45.24
-33.40
-20.51
-7.55
5.71
20.08
36.35
54.59
73.91
91.99
107.01
118.18
124.15
124.89
121.26
114.51
105.71
95.53
84.11
71.52
57.85
43.49
29.42
16.79
6.56
-0.94
-6.04
-9.66
-12.73
-16.00
-19.73
-23.42
-26.24
-27.52
-27.18
-25.80
-24.54
-24.35
-25.61
-27.99
-30.57
-32.14
-31.99
-30.34
-28.22
-27.65
-29.88
-35.22
-43.20
-52.46
-60.98
-66.82
-68.11
-63.24
-52.74
-38.74
-25.76
-20.25
-27.65
-48.70
-78.44
-107.37
-125.22
-127.34
-114.65
-93.04
-70.94
-56.90
-53.82
-58.49
-63.79
-61.61
-48.60
-23.89
11.82
56.14
100.33
136.29
158.04
162.64
164.42
168.16
177.05
197.11
225.13
258.68
292.22
316.45
320.50
297.56
246.35
176.57
107.94
59.54
41.99
54.38
86.23
121.73
147.06
151.95
122.85
61.70
-17.16
-95.90
-162.33
-209.93
-243.26
-263.88
-270.97
-262.03
-232.99
-184.68
-125.80
-67.54
-17.74
20.72
51.54
80.78
105.59
121.95
136.11
144.44
135.91
109.89
75.01
45.45
32.25
37.24
53.89
68.82
65.95
36.21
-17.94
-85.96
-153.37
-207.10
-238.99
-244.54
-223.42
-180.41
-121.64
-52.40
21.14
91.27
148.37
181.86
185.41
160.99
118.86
76.35
52.13
57.66
92.45
145.19
198.22
236.17
251.36
243.02
215.07
173.31
122.76
67.12
10.13
-45.48
-96.40
-134.70
-151.84
-144.11
-115.26
-74.14
-34.90
-1.49
24.43
41.83
49.52
46.74
31.03
1.72
-37.58
-78.21
-108.26
-118.64
-106.78
-78.59
-48.11
-31.60
-39.76
-73.60
-125.10
-182.35
-236.27
-282.60
-320.96
-353.17
-380.06
-400.39
-412.45
-415.73
-412.01
-403.66
-390.81
-370.74
-341.21
-302.39
-258.15
-215.18
-179.92
-156.59
-145.09
-141.27
-134.15
-118.25
-95.73
-74.55
-64.53
-64.47
-69.47
-74.44
-76.40
-74.67
-71.04
-67.16
-63.05
-56.77
-45.09
-26.28
-0.20
31.72
66.95
101.78
133.30
160.32
183.49
204.82
225.49
246.01
266.29
286.12
305.14
323.58
341.92
359.94
376.07
387.06
389.68
382.51
366.70
345.21
321.72
299.34
279.90
264.17
252.06
243.12
236.51
230.68
223.52
213.15
198.95
182.05
164.88
149.84
138.20
129.62
122.39
114.28
103.26
88.09
68.57
45.45
20.36
-4.47
-26.54
-43.53
-53.73
-56.41
-51.97
-41.88
-28.41
-14.21
-1.77
7.09
11.43
11.26
7.20
0.17
-8.93
-19.49
-31.12
-43.58
-56.60
-69.88
-83.04
-95.68
-107.42
-117.82
-126.46
-132.88
-136.63
-137.40
-135.16
-130.30
-123.64
-116.33
-109.58
-104.36
-101.14
-99.81
-99.85
-100.45
-100.67
-99.48
-95.80
-88.71
-77.87
-63.88
-48.40
-33.64
-21.46
-12.44
-5.50
1.39
10.10
21.16
33.49
45.01
53.79
59.06
61.23
61.35
60.23
57.94
53.84
47.15
37.63
25.92
13.62
2.69
-5.15
-9.02
-9.09
-6.34
-1.94
3.31
9.14
15.66
22.85
30.34
37.53
43.96
49.59
54.76
59.68
63.99
66.71
66.73
63.41
56.98
48.42
39.03
30.05
22.49
17.14
14.47
14.30
15.50
16.04
13.54
6.09
-7.08
-25.44
-47.43
-70.84
-93.18
-111.90
-124.67
-129.93
-127.57
-119.28
-108.45
-99.28
-95.51
-99.39
-111.11
-128.93
-149.76
-169.98
-186.16
-195.66
-197.02
-190.07
-175.87
-156.34
-133.68
-109.64
-85.00
-59.50
-32.54
-4.20
23.95
48.71
66.21
73.69
70.90
60.54
47.34
36.02
29.49
27.90
29.22
30.72
30.58
28.60
25.85
23.53
21.96
20.13
16.19
8.54
-3.21
-17.78
-32.69
-45.12
-52.80
-54.61
-50.63
-41.86
-29.82
-15.98
-1.45
13.05
26.98
39.73
50.44
58.28
63.06
65.76
68.59
74.28
84.72
99.83
117.34
133.59
145.29
150.89
151.03
147.96
144.40
142.36
142.59
144.42
146.03
145.02
139.18
127.20
109.12
86.37
61.28
36.33
13.41
-6.57
-23.52
-37.83
-49.85
-59.73
-67.43
-72.86
-75.99
-76.86
-75.56
-72.31
-67.45
-61.53
-55.11
-48.72
-42.74
-37.39
-32.74
-28.83
-25.70
-23.47
-22.43
-22.99
-25.51
-30.08
-36.41
-43.74
-51.16
-57.82
-63.17
-67.00
-69.32
-70.16
-69.47
-67.14
-63.17
-57.76
-51.34
-44.43
-37.59
-31.29
-26.01
-22.20
-20.23
-20.21
-21.74
-23.97
-25.68
-25.84
-23.91
-20.22
-15.75
-11.59
-8.35
-5.77
-2.80
1.84
8.93
18.45
29.58
41.17
52.36
62.81
72.60
81.95
90.96
99.71
108.42
117.56
127.82
139.60
152.75
166.32
178.87
188.86
195.11
196.93
194.06
186.56
174.63
158.68
139.45
117.85
94.85
71.10
46.68
21.22
-5.74
-34.22
-63.33
-91.29
-115.92
-135.37
-148.70
-156.05
-158.43
-157.06
-153.01
-147.04
-139.67
-131.44
-122.93
-114.61
-106.71
-99.31
-92.54
-86.82
-82.78
-80.90
-81.23
-83.19
-85.87
-88.44
-90.56
-92.30
-93.90
-95.36
-96.23
-95.85
-93.75
-90.06
-85.56
-81.25
-77.87
-75.37
-72.96
-69.39
-63.59
-55.12
-44.46
-32.94
-22.32
-14.29
-9.98
-9.55
-12.08
-15.62
-17.81
-16.54
-10.70
-0.50
12.61
26.50
39.14
49.09
55.87
60.02
62.97
66.70
73.20
83.67
97.81
113.62
127.87
137.18
139.06
132.57
118.33
98.20
74.74
51.01
30.35
16.02
10.47
14.49
26.61
43.15
58.92
68.45
67.32
53.18
26.54
-8.98
-47.22
-80.86
-103.30
-110.63
-102.73
-82.96
-56.72
-29.47
-5.25
13.80
26.95
33.96
34.45
27.88
14.05
-6.31
-31.19
-57.53
-81.90
-101.25
-113.59
-118.20
-115.44
-106.32
-92.07
-73.89
-53.00
-30.79
-8.96
10.70
26.66
38.02
44.77
47.62
47.62
45.79
42.86
39.24
35.17
30.85
26.59
22.87
20.17
18.90
19.16
20.73
22.99
25.13
26.37
26.19
24.50
21.59
18.02
14.36
11.07
8.29
5.92
3.80
1.77
-0.22
-2.10
-3.85
-5.51
-7.25
-9.29
-11.78
-14.68
-17.82
-20.94
-23.89
-26.63
-29.22
-31.77
-34.36
-37.05
-39.92
-43.05
-46.42
-49.85
-52.85
-54.68
-54.56
-51.89
-46.49
-38.71
-29.22
-18.79
-8.01
2.78
13.50
24.04
34.13
43.29
50.95
56.74
60.67
63.17
64.89
66.34
67.67
68.62
68.71
67.62
65.39
62.43
59.38
56.84
55.11
54.07
53.23
51.96
49.69
46.07
41.10
35.09
28.51
21.83
15.46
9.62
4.37
-0.35
-4.62
-8.48
-11.88
-14.72
-16.92
-18.51
-19.63
-20.53
-21.45
-22.45
-23.38
-23.95
-23.91
-23.29
-22.47
-22.11
-22.83
-24.94
-28.20
-31.89
-34.95
-36.43
-35.83
-33.34
-29.60
-25.43
-21.40
-17.55
-13.47
-8.42
-1.79
6.57
16.22
26.18
35.25
42.35
46.91
48.88
48.72
47.01
44.23
40.65
36.41
31.69
26.89
22.53
19.08
16.67
15.05
13.63
11.85
9.35
6.16
2.63
-0.79
-3.71
-5.92
-7.42
-8.37
-9.02
-9.58
-10.27
-11.19
-12.38
-13.89
-15.68
-17.67
-19.78
-21.85
-23.74
-25.36
-26.71
-27.86
-28.97
-30.25
-31.86
-33.98
-36.67
-39.87
-43.42
-47.03
-50.29
-52.82
-54.29
-54.47
-53.25
-50.70
-46.89
-41.97
-36.08
-29.34
-21.88
-13.91
-5.71
2.34
9.83
16.38
21.73
25.84
28.89
31.17
32.97
34.48
35.72
36.64
37.19
37.42
37.44
37.47
37.63
37.91
38.20
38.32
38.15
37.70
37.07
36.43
35.90
35.47
35.05
34.50
33.65
32.40
30.74
28.68
26.33
23.73
20.95
17.98
14.84
11.58
8.25
5.00
1.93
-0.82
-3.25
-5.42
-7.47
-9.56
-11.81
-14.28
-16.98
-19.87
-22.90
-25.99
-28.92
-31.34
-32.81
-32.92
-31.38
-28.09
-23.15
-16.81
-9.44
-1.41
6.91
15.15
22.97
29.99
35.82
40.15
42.76
43.63
42.98
41.24
38.88
36.30
33.76
31.34
29.05
26.81
24.58
22.34
20.05
17.68
15.24
12.78
10.39
8.17
6.18
4.39
2.69
1.05
-0.56
-2.03
-3.26
-4.20
-4.86
-5.39
-5.99
-6.85
-8.08
-9.72
-11.76
-14.15
-16.85
-19.78
-22.84
-25.95
-29.04
-32.12
-35.31
-38.69
-42.28
-46.02
-49.70
-53.07
-55.85
-57.76
-58.54
-57.99
-56.02
-52.72
-48.35
-43.27
-37.80
-32.07
-26.01
-19.48
-12.48
-5.20
1.94
8.41
13.80
17.91
20.73
22.45
23.27
23.42
23.08
22.48
21.81
21.21
20.78
20.47
20.19
19.80
19.18
18.26
17.03
15.52
13.79
11.92
10.03
8.22
6.54
4.97
3.42
1.77
-0.08
-2.11
-4.22
-6.26
-8.08
-9.70
-11.27
-13.02
-15.16
-17.73
-20.61
-23.50
-26.11
-28.18
-29.67
-30.75
-31.78
-33.12
-35.06
-37.63
-40.55
-43.31
-45.30
-45.99
-45.07
-42.46
-38.29
-32.81
-26.31
-19.12
-11.52
-3.76
3.93
11.41
18.59
25.31
31.41
36.67
40.93
44.10
46.26
47.57
48.25
48.47
48.33
47.84
47.02
45.89
44.51
43.00
41.40
39.75
38.00
36.04
33.82
31.31
28.62
25.94
23.48
21.39
19.65
18.08
16.34
14.19
11.51
8.35
4.97
1.66
-1.35
-4.04
-6.51
-8.99
-11.68
-14.67
-17.89
-21.18
-24.37
-27.30
-29.97
-32.47
-34.96
-37.61
-40.45
-43.40
-46.19
-48.45
-49.76
-49.82
-48.44
-45.59
-41.41
-36.10
-29.87
-22.95
-15.59
-8.08
-0.77
6.00
11.94
16.81
20.55
23.13
24.65
25.18
24.91
24.02
22.81
21.55
20.43
19.57
18.90
18.28
17.56
16.64
15.58
14.51
13.65
13.10
12.88
12.81
12.63
12.06
10.93
9.22
7.06
4.59
1.95
-0.83
-3.79
-6.97
-10.32
-13.71
-16.96
-19.96
-22.67
-25.13
-27.40
-29.57
-31.74
-34.06
-36.76
-40.02
-43.88
-48.15
-52.39
-55.94
-58.19
-58.67
-57.22
-53.93
-49.02
-42.74
-35.34
-27.01
-18.01
-8.67
0.58
9.30
17.06
23.54
28.51
31.88
33.69
34.04
33.08
30.94
27.72
23.50
18.44
12.85
7.09
1.55
-3.56
-8.29
-12.91
-17.73
-23.00
-28.70
-34.63
-40.52
-46.22
-51.79
-57.53
-63.85
-70.91
-78.54
-86.13
-92.75
-97.37
-98.95
-96.57
-89.38
-76.70
-58.33
-34.85
-7.95
19.79
45.45
66.57
81.79
90.94
94.77
94.29
90.50
84.06
75.62
65.96
56.02
46.80
39.09
33.29
29.45
27.42
26.93
27.74
29.64
32.50
36.33
41.24
47.31
54.37
61.71
68.21
72.49
73.49
70.85
65.16
57.61
49.57
42.04
35.35
29.46
24.19
19.44
14.93
9.94
3.07
-7.39
-22.55
-42.10
-63.94
-84.86
-101.87
-113.48
-119.98
-122.71
-122.68
-119.41
-110.94
-94.97
-70.44
-38.71
-3.39
30.89
60.08
81.89
95.95
103.11
104.50
100.97
93.15
81.92
68.60
54.98
42.85
33.34
26.67
22.08
18.39
14.51
9.91
4.71
-0.42
-4.63
-7.19
-7.75
-6.41
-3.60
0.19
4.61
9.55
15.06
21.13
27.48
33.58
38.81
42.66
44.97
45.94
45.95
45.50
44.99
44.65
44.49
44.29
43.63
42.17
39.72
36.53
33.17
30.33
28.45
27.52
27.09
26.50
25.23
23.06
19.95
15.83
10.49
3.59
-4.97
-14.83
-25.03
-34.23
-41.21
-45.26
-46.44
-45.47
-43.44
-41.36
-39.88
-39.21
-39.16
-39.35
-39.45
-39.25
-38.75
-38.10
-37.60
-37.52
-38.10
-39.43
-41.39
-43.58
-45.38
-46.06
-45.05
-42.09
-37.37
-31.46
-25.09
-19.01
-13.72
-9.41
-5.96
-3.01
-0.10
3.09
6.68
10.42
13.82
16.32
17.56
17.60
16.82
15.77
14.83
14.13
13.50
12.77
11.92
11.14
10.69
10.72
11.11
11.45
11.31
10.41
8.88
7.17
5.90
5.54
6.22
7.59
8.95
9.61
9.11
7.50
5.29
3.15
1.59
0.73
0.29
-0.27
-1.31
-2.90
-4.77
-6.46
-7.62
-8.10
-8.06
-7.85
-7.83
-8.31
-9.44
-11.27
-13.75
-16.72
-19.94
-23.01
-25.51
-27.02
-27.25
-26.15
-23.89
-20.82
-17.29
-13.56
-9.64
-5.46
-0.85
4.19
9.50
14.71
19.38
23.09
25.54
26.66
26.60
25.71
24.41
23.15
22.20
21.62
21.30
21.00
20.56
19.86
18.91
17.75
16.35
14.64
12.58
10.17
7.57
5.01
2.66
0.63
-1.11
-2.63
-3.93
-4.91
-5.46
-5.46
-4.93
-4.06
-3.13
-2.50
-2.49
-3.24
-4.75
-6.80
-9.05
-11.10
-12.67
-13.67
-14.28
-14.83
-15.68
-17.12
-19.28
-22.15
-25.60
-29.44
-33.39
-37.09
-40.15
-42.18
-42.84
-41.91
-39.30
-35.18
-30.05
-24.64
-19.86
-16.51
-15.16
-16.17
-19.83
-26.43
-36.16
-48.72
-62.94
-76.71
-87.45
-93.00
-92.32
-85.80
-74.82
-61.15
-46.44
-32.15
-19.74
-10.84
-6.88
-8.42
-14.63
-23.19
-31.13
-35.91
-36.33
-32.83
-26.97
-20.47
-14.39
-8.88
-3.35
2.90
10.25
18.50
27.05
35.23
42.61
49.08
54.67
59.41
63.08
65.25
65.52
63.70
60.02
55.08
49.64
44.32
39.44
34.90
30.26
25.00
18.72
11.34
3.16
-5.26
-13.24
-20.14
-25.49
-29.01
-30.54
-30.02
-27.43
-22.89
-16.65
-9.17
-1.00
7.24
15.00
21.88
27.66
32.31
35.97
38.90
41.33
43.41
45.15
46.46
47.22
47.41
47.11
46.47
45.64
44.70
43.67
42.51
41.22
39.79
38.19
36.39
34.31
31.94
29.42
27.03
25.09
23.89
23.52
23.85
24.58
25.38
25.97
26.17
25.91
25.20
24.08
22.65
21.06
19.45
17.95
16.61
15.40
14.20
12.94
11.56
10.06
8.51
6.93
5.33
3.66
1.88
-0.07
-2.19
-4.47
-6.89
-9.42
-12.03
-14.80
-17.73
-20.84
-24.03
-27.02
-29.50
-31.11
-31.64
-31.03
-29.41
-26.99
-23.94
-20.37
-16.30
-11.79
-6.97
-2.06
2.70
7.07
10.93
14.20
16.86
18.90
20.26
20.90
20.86
20.25
19.27
18.18
17.19
16.45
16.01
15.82
15.81
15.89
15.96
15.88
15.54
14.79
13.53
11.79
9.70
7.45
5.27
3.29
1.57
0.10
-1.22
-2.50
-3.85
-5.35
-7.04
-8.96
-11.09
-13.42
-15.89
-18.39
-20.82
-23.07
-25.11
-27.00
-28.88
-30.90
-33.15
-35.60
-38.14
-40.67
-43.03
-45.10
-46.68
-47.54
-47.45
-46.21
-43.75
-40.07
-35.25
-29.39
-22.64
-15.22
-7.42
0.36
7.68
14.15
19.52
23.71
26.76
28.85
30.18
30.97
31.39
31.55
31.50
31.27
30.87
30.36
29.74
29.00
28.11
27.02
25.73
24.30
22.86
21.46
20.10
18.72
17.22
15.51
13.61
11.52
9.30
6.93
4.39
1.73
-0.90
-3.36
-5.55
-7.47
-9.30
-11.18
-13.23
-15.37
-17.38
-19.10
-20.51
-21.77
-23.16
-24.96
-27.23
-29.87
-32.57
-34.90
-36.51
-37.14
-36.66
-35.06
-32.46
-29.03
-25.06
-20.84
-16.57
-12.33
-8.06
-3.64
1.02
5.81
10.50
14.73
18.20
20.87
22.90
24.60
26.25
28.01
29.83
31.59
33.09
34.19
34.84
35.04
34.84
34.29
33.40
32.18
30.61
28.72
26.61
24.38
22.15
19.96
17.78
15.52
13.09
10.50
7.84
5.25
2.83
0.56
-1.64
-3.82
-6.05
-8.23
-10.23
-11.93
-13.28
-14.35
-15.26
-16.16
-17.18
-18.40
-19.87
-21.66
-23.79
-26.23
-28.84
-31.35
-33.35
-34.45
-34.32
-32.80
-29.95
-25.98
-21.14
-15.75
-10.08
-4.34
1.24
6.49
11.31
15.57
19.17
22.11
24.37
25.98
27.03
27.62
27.79
27.59
27.01
26.06
24.86
23.58
22.41
21.46
20.73
20.09
19.40
18.52
17.43
16.20
14.88
13.53
12.15
10.72
9.21
7.63
5.99
4.29
2.52
0.69
-1.21
-3.09
-4.92
-6.75
-8.61
-10.61
-12.85
-15.30
-17.90
-20.53
-23.05
-25.36
-27.46
-29.32
-31.01
-32.62
-34.26
-36.00
-37.80
-39.43
-40.56
-40.75
-39.71
-37.36
-33.80
-29.32
-24.21
-18.71
-12.98
-7.15
-1.43
3.93
8.67
12.52
15.37
17.27
18.41
19.02
19.32
19.47
19.49
19.42
19.24
19.01
18.79
18.57
18.29
17.81
16.99
15.72
14.01
11.96
9.78
7.63
5.68
4.02
2.67
1.58
0.66
-0.22
-1.13
-2.15
-3.27
-4.47
-5.70
-6.94
-8.20
-9.50
-10.84
-12.26
-13.76
-15.36
-17.08
-18.90
-20.81
-22.83
-24.95
-27.18
-29.53
-31.91
-34.12
-35.90
-36.98
-37.13
-36.26
-34.45
-31.80
-28.46
-24.49
-19.82
-14.37
-8.16
-1.40
5.49
11.95
17.42
21.51
24.14
25.51
25.99
25.95
25.66
25.26
24.78
24.30
23.88
23.62
23.56
23.61
23.64
23.49
23.12
22.54
21.89
21.24
20.64
20.07
19.50
18.86
18.12
17.23
16.09
14.59
12.63
10.15
7.25
4.08
0.84
-2.25
-5.08
-7.58
-9.72
-11.47
-12.86
-13.92
-14.76
-15.58
-16.53
-17.80
-19.40
-21.26
-23.23
-25.20
-27.13
-29.09
-31.19
-33.42
-35.70
-37.74
-39.19
-39.67
-38.98
-37.05
-34.01
-30.08
-25.46
-20.34
-14.91
-9.35
-3.90
1.20
5.74
9.55
12.58
14.84
16.42
17.42
17.98
18.18
18.12
17.84
17.40
16.84
16.24
15.67
15.18
14.74
14.27
13.70
13.03
12.33
11.71
11.31
11.20
11.41
11.90
12.61
13.42
14.23
14.87
15.17
15.00
14.31
13.15
11.63
9.90
8.06
6.14
4.16
2.14
0.11
-1.80
-3.52
-4.99
-6.29
-7.57
-9.00
-10.66
-12.53
-14.55
-16.68
-18.93
-21.36
-23.96
-26.59
-28.91
-30.48
-30.87
-29.88
-27.56
-24.21
-20.15
-15.67
-10.89
-5.84
-0.58
4.72
9.75
14.15
17.59
19.99
21.42
22.09
22.27
22.16
21.84
21.31
20.59
19.68
18.74
17.91
17.33
17.08
17.14
17.42
17.82
18.26
18.69
19.06
19.28
19.21
18.70
17.72
16.36
14.86
13.48
12.39
11.58
10.86
9.97
8.69
6.92
4.72
2.22
-0.40
-3.04
-5.63
-8.15
-10.56
-12.78
-14.74
-16.42
-17.87
-19.26
-20.82
-22.73
-25.07
-27.79
-30.70
-33.56
-36.16
-38.30
-39.81
-40.50
-40.15
-38.59
-35.70
-31.60
-26.49
-20.72
-14.63
-8.50
-2.54
3.12
8.28
12.79
16.50
19.37
21.52
23.14
24.42
25.46
26.25
26.68
26.62
26.04
25.02
23.75
22.44
21.29
20.37
19.65
19.02
18.34
17.53
16.57
15.51
14.39
13.27
12.18
11.11
10.08
9.11
8.20
7.31
6.32
5.15
3.76
2.17
0.48
-1.25
-2.99
-4.75
-6.60
-8.59
-10.68
-12.80
-14.85
-16.71
-18.34
-19.78
-21.15
-22.60
-24.28
-26.26
-28.44
-30.64
-32.58
-33.95
-34.51
-34.12
-32.68
-30.20
-26.74
-22.44
-17.48
-12.09
-6.52
-0.99
4.32
9.20
13.46
16.94
19.53
21.25
22.18
22.53
22.50
22.29
22.01
21.70
21.37
21.03
20.66
20.26
19.83
19.31
18.68
17.97
17.18
16.39
15.66
14.97
14.25
13.44
12.45
11.26
9.95
8.59
7.27
6.00
4.72
3.35
1.85
0.20
-1.53
-3.27
-4.98
-6.66
-8.33
-10.03
-11.79
-13.60
-15.48
-17.44
-19.48
-21.57
-23.67
-25.78
-27.93
-30.17
-32.52
-34.96
-37.34
-39.36
-40.73
-41.13
-40.38
-38.44
-35.32
-31.12
-26.01
-20.18
-13.92
-7.58
-1.48
4.10
8.99
13.11
16.39
18.77
20.22
20.80
20.60
19.82
18.66
17.24
15.64
13.85
11.92
9.94
8.05
6.34
4.79
3.29
1.63
-0.31
-2.60
-5.11
-7.59
-9.70
-11.03
-11.22
-10.08
-7.64
-4.14
-0.01
4.29
8.36
11.98
15.08
17.69
19.80
21.32
22.13
22.15
21.43
20.19
18.73
17.36
16.23
15.30
14.35
13.09
11.28
8.83
5.83
2.41
-1.23
-4.87
-8.29
-11.19
-13.26
-14.24
-14.01
-12.63
-10.32
-7.39
-4.10
-0.63
2.97
6.71
10.58
14.50
18.24
21.50
23.99
25.50
26.00
25.67
24.77
23.56
22.18
20.65
18.96
17.18
15.48
14.06
13.02
12.32
11.76
11.10
10.19
9.06
7.91
6.90
6.05
5.23
4.20
2.79
1.01
-0.99
-2.95
-4.65
-6.02
-7.13
-8.14
-9.21
-10.42
-11.76
-13.19
-14.67
-16.24
-17.92
-19.74
-21.70
-23.76
-25.87
-28.00
-30.13
-32.27
-34.44
-36.57
-38.50
-39.99
-40.77
-40.63
-39.42
-37.16
-33.95
-29.92
-25.20
-19.85
-13.88
-7.40
-0.56
6.33
12.93
18.92
24.08
28.25
31.39
33.50
34.62
34.87
34.41
33.47
32.27
30.97
29.71
28.49
27.29
26.06
24.76
23.34
21.77
20.07
18.29
16.50
14.82
13.29
11.95
10.77
9.69
8.59
7.38
5.98
4.30
2.36
0.21
-2.00
-4.15
-6.12
-7.86
-9.41
-10.85
-12.28
-13.75
-15.26
-16.79
-18.31
-19.84
-21.41
-23.08
-24.89
-26.86
-28.92
-30.99
-32.88
-34.37
-35.21
-35.14
-34.00
-31.71
-28.38
-24.17
-19.35
-14.09
-8.52
-2.70
3.28
9.24
14.90
19.92
23.97
26.87
28.65
29.44
29.45
28.94
28.15
27.23
26.32
25.48
24.72
24.06
23.47
22.92
22.37
21.75
20.93
19.84
18.47
16.91
15.31
13.81
12.49
11.33
10.27
9.25
8.19
7.05
5.78
4.34
2.65
0.66
-1.64
-4.23
-7.05
-9.99
-12.89
-15.61
-17.98
-19.94
-21.52
-22.85
-24.14
-25.61
-27.42
-29.66
-32.29
-35.14
-37.90
-40.16
-41.48
-41.48
-39.91
-36.72
-32.07
-26.28
-19.74
-12.85
-5.90
0.89
7.39
13.46
18.97
23.75
27.64
30.51
32.28
32.93
32.55
31.29
29.40
27.18
24.95
23.00
21.48
20.47
19.88
19.55
19.27
18.86
18.19
17.20
15.93
14.40
12.71
10.92
9.13
7.43
5.91
4.56
3.32
2.06
0.62
-1.06
-2.93
-4.89
-6.77
-8.53
-10.23
-11.96
-13.82
-15.84
-17.94
-20.07
-22.15
-24.18
-26.16
-28.07
-29.91
-31.74
-33.66
-35.73
-37.91
-39.88
-41.20
-41.36
-40.01
-37.08
-32.74
-27.31
-21.10
-14.32
-7.09
0.44
8.04
15.37
22.01
27.58
31.80
34.60
36.12
36.67
36.61
36.30
35.91
35.47
34.96
34.34
33.66
33.02
32.48
32.02
31.53
30.84
29.83
28.50
26.92
25.17
23.34
21.42
19.36
17.10
14.57
11.80
8.84
5.78
2.67
-0.41
-3.47
-6.50
-9.47
-12.38
-15.15
-17.72
-20.07
-22.17
-24.00
-25.53
-26.74
-27.63
-28.30
-28.91
-29.67
-30.74
-32.15
-33.79
-35.38
-36.52
-36.82
-35.93
-33.69
-30.13
-25.46
-19.95
-13.87
-7.41
-0.67
6.19
12.97
19.41
25.25
30.31
34.58
38.16
41.27
44.08
46.73
49.25
51.60
53.68
55.26
56.11
56.00
54.80
52.53
49.28
45.17
40.23
34.40
27.59
19.83
11.37
2.65
-5.79
-13.53
-20.38
-26.32
-31.41
-35.71
-39.17
-41.74
-43.44
-44.43
-44.98
-45.34
-45.66
-45.92
-46.06
-46.01
-45.79
-45.46
-45.11
-44.79
-44.53
-44.36
-44.36
-44.62
-45.21
-46.03
-46.86
-47.33
-47.11
-45.94
-43.78
-40.74
-37.00
-32.69
-27.85
-22.44
-16.39
-9.74
-2.70
4.41
11.17
17.19
22.21
26.09
28.89
30.75
31.89
32.50
32.74
32.66
32.29
31.65
30.84
30.09
29.64
29.73
30.47
31.79
33.41
34.96
36.03
36.35
35.84
34.56
32.71
30.48
27.97
25.22
22.29
19.34
16.55
14.15
12.23
10.70
9.37
8.01
6.50
4.91
3.35
1.90
0.56
-0.81
-2.34
-4.10
-6.08
-8.28
-10.74
-13.59
-17.00
-21.03
-25.54
-30.16
-34.34
-37.56
-39.47
-39.99
-39.29
-37.60
-35.19
-32.16
-28.51
-24.18
-19.18
-13.65
-7.85
-2.16
3.09
7.69
11.54
14.68
17.17
19.07
20.44
21.35
21.84
22.05
22.08
22.03
21.97
21.95
22.00
22.11
22.28
22.45
22.53
22.46
22.30
22.17
22.21
22.49
22.98
23.57
24.15
24.70
25.31
26.07
27.01
27.93
28.52
28.43
27.40
25.42
22.69
19.51
16.21
13.01
9.97
7.04
4.11
1.00
-2.37
-6.06
-10.01
-14.08
-17.98
-21.35
-23.74
-24.77
-24.19
-22.00
-18.45
-13.96
-9.06
-4.21
0.28
4.31
7.97
11.48
15.10
18.93
22.87
26.59
29.62
31.52
32.03
31.21
29.32
26.85
24.22
21.75
19.59
17.73
16.01
14.19
11.99
9.11
5.45
1.03
-3.93
-9.13
-14.33
-19.44
-24.51
-29.70
-35.13
-40.73
-46.25
-51.39
-55.83
-59.37
-61.95
-63.59
-64.31
-64.11
-62.95
-60.84
-57.86
-54.13
-49.86
-45.19
-40.23
-35.07
-29.75
-24.35
-19.05
-14.06
-9.63
-6.02
-3.40
-1.85
-1.29
-1.47
-1.96
-2.23
-1.73
-0.04
3.04
7.48
13.08
19.53
26.50
33.65
40.59
46.98
52.48
56.87
60.11
62.35
63.79
64.64
64.89
64.31
62.43
58.68
52.69
44.63
35.27
25.88
17.66
11.21
6.20
1.55
-4.00
-11.25
-20.08
-29.66
-38.90
-47.13
-54.39
-61.35
-68.84
-77.44
-87.34
-98.38
-110.19
-122.13
-132.98
-140.88
-143.55
-139.05
-126.73
-107.85
-85.43
-63.39
-45.23
-33.03
-27.15
-26.61
-29.85
-35.39
-42.04
-48.81
-54.71
-58.75
-60.21
-58.93
-55.37
-50.34
-44.66
-38.75
-32.47
-25.34
-16.88
-6.96
3.94
14.91
24.92
33.18
39.37
43.68
46.61
48.72
50.43
51.89
52.97
53.32
52.47
50.04
45.90
40.21
33.45
26.25
19.11
12.34
6.08
0.42
-4.40
-8.04
-10.17
-10.77
-10.19
-9.07
-8.01
-7.32
-6.86
-6.21
-4.97
-3.02
-0.59
1.78
3.42
3.68
2.08
-1.62
-7.25
-14.35
-22.12
-29.68
-36.36
-41.88
-46.33
-49.93
-52.88
-55.07
-56.17
-55.75
-53.47
-49.15
-42.78
-34.46
-24.36
-12.81
-0.36
12.21
23.99
34.19
42.29
48.23
52.29
54.98
56.79
58.08
59.06
59.88
60.81
62.25
64.81
68.95
74.78
81.92
89.53
96.68
102.75
107.67
111.88
116.01
120.46
125.05
129.11
131.81
132.63
131.57
129.28
126.75
124.97
124.52
125.38
126.96
128.20
127.80
124.40
116.76
103.88
85.36
61.62
34.10
5.13
-22.73
-47.44
-68.11
-85.03
-99.23
-111.59
-122.20
-130.19
-134.31
-133.75
-128.81
-120.86
-111.60
-102.06
-91.91
-79.47
-62.77
-40.80
-14.44
13.46
39.13
59.33
72.55
79.47
82.33
83.76
85.71
88.82
92.36
94.58
93.31
86.58
73.27
53.55
29.05
2.53
-22.75
-43.87
-58.90
-67.00
-68.28
-63.46
-53.65
-40.37
-25.53
-11.24
0.62
8.97
13.79
15.95
16.68
16.99
17.24
17.18
16.23
13.76
9.34
2.74
-6.16
-17.24
-30.02
-43.57
-56.58
-67.69
-75.94
-81.04
-83.28
-83.45
-82.33
-80.50
-78.12
-74.96
-70.42
-63.82
-54.62
-42.72
-28.79
-14.21
-0.93
9.02
14.08
13.56
7.82
-1.85
-13.35
-24.33
-32.42
-35.78
-33.58
-26.14
-14.84
-1.70
11.24
22.50
31.36
37.80
42.07
44.39
44.87
43.69
41.26
38.27
35.42
33.14
31.53
30.48
29.91
29.86
30.32
30.90
30.74
28.83
24.62
18.57
12.08
6.88
4.13
3.61
3.83
2.63
-1.81
-10.23
-22.12
-36.01
-50.19
-63.16
-74.08
-82.61
-88.79
-92.79
-94.84
-95.18
-94.08
-91.77
-88.43
-84.12
-78.79
-72.39
-64.93
-56.63
-47.85
-39.02
-30.58
-22.77
-15.62
-8.80
-1.56
7.03
17.72
30.66
45.05
59.21
71.05
78.77
81.53
79.68
74.51
67.67
60.59
54.12
48.48
43.57
39.15
35.04
31.15
27.42
23.77
20.14
16.58
13.28
10.59
8.83
8.16
8.44
9.22
9.85
9.70
8.33
5.53
1.34
-4.00
-10.19
-16.83
-23.44
-29.53
-34.58
-38.16
-39.94
-39.76
-37.60
-33.60
-28.03
-21.33
-14.08
-6.88
-0.28
5.35
9.86
13.33
15.93
17.82
19.05
19.59
19.36
18.32
16.58
14.35
11.91
9.47
7.17
5.04
3.00
0.97
-1.14
-3.41
-5.86
-8.50
-11.28
-14.08
-16.70
-18.95
-20.66
-21.76
-22.32
-22.45
-22.34
-22.15
-22.00
-21.99
-22.19
-22.68
-23.53
-24.74
-26.33
-28.28
-30.57
-33.14
-35.83
-38.40
-40.46
-41.59
-41.44
-39.77
-36.61
-32.12
-26.60
-20.32
-13.53
-6.40
0.89
8.19
15.32
22.05
28.20
33.61
38.16
41.83
44.68
46.79
48.29
49.32
49.97
50.35
50.51
50.46
50.14
49.53
48.54
47.12
45.31
43.15
40.77
38.33
35.92
33.60
31.39
29.21
27.01
24.75
22.43
20.08
17.68
15.20
12.59
9.87
7.09
4.37
1.83
-0.51
-2.75
-5.04
-7.64
-10.69
-14.24
-18.16
-22.19
-25.94
-29.03
-31.09
-31.90
-31.38
-29.58
-26.62
-22.66
-17.88
-12.48
-6.64
-0.57
5.46
11.19
16.32
20.64
23.97
26.27
27.63
28.16
28.06
27.53
26.79
26.04
25.47
25.14
25.03
25.03
24.96
24.75
24.33
23.75
23.01
22.09
20.91
19.39
17.54
15.43
13.21
10.99
8.87
6.86
4.88
2.87
0.75
-1.41
-3.56
-5.58
-7.44
-9.21
-11.07
-13.20
-15.79
-18.97
-22.69
-26.84
-31.09
-35.04
-38.23
-40.24
-40.79
-39.80
-37.35
-33.68
-29.02
-23.60
-17.66
-11.46
-5.27
0.61
5.93
10.54
14.35
17.33
19.49
20.87
21.56
21.73
21.57
21.26
20.93
20.59
20.22
19.78
19.27
18.69
18.06
17.37
16.54
15.51
14.20
12.60
10.75
8.70
6.50
4.18
1.73
-0.83
-3.55
-6.42
-9.46
-12.63
-15.93
-19.33
-22.82
-26.34
-29.86
-33.28
-36.54
-39.59
-42.47
-45.36
-48.45
-51.92
-55.70
-59.49
-62.79
-65.02
-65.68
-64.46
-61.33
-56.43
-50.05
-42.56
-34.39
-25.95
-17.62
-9.67
-2.26
4.61
11.04
17.10
22.79
27.97
32.39
35.77
37.91
38.76
38.45
37.26
35.53
33.61
31.77
30.17
28.85
27.73
26.71
25.64
24.43
23.03
21.39
19.47
17.20
14.55
11.54
8.31
5.07
2.05
-0.64
-3.00
-5.17
-7.26
-9.33
-11.31
-13.07
-14.51
-15.64
-16.53
-17.34
-18.20
-19.23
-20.52
-22.14
-24.14
-26.49
-29.04
-31.48
-33.41
-34.43
-34.25
-32.78
-30.11
-26.44
-22.02
-17.07
-11.77
-6.24
-0.57
5.12
10.67
15.89
20.59
24.55
27.65
29.82
31.11
31.66
31.67
31.33
30.83
30.32
29.90
29.61
29.46
29.37
29.24
29.00
28.55
27.92
27.10
26.10
24.93
23.61
22.21
20.84
19.63
18.60
17.71
16.83
15.83
14.69
13.54
12.54
11.83
11.43
11.21
10.97
10.54
9.83
8.85
7.68
6.41
5.11
3.82
2.57
1.39
0.27
-0.87
-2.24
-4.12
-6.86
-10.69
-15.60
-21.20
-26.81
-31.53
-34.57
-35.42
-34.07
-30.90
-26.59
-21.82
-17.19
-13.06
-9.60
-6.77
-4.44
-2.38
-0.33
1.87
4.28
6.78
9.15
11.16
12.68
13.69
14.25
14.48
14.47
14.33
14.09
13.78
13.38
12.87
12.21
11.41
10.55
9.70
8.94
8.26
7.60
6.88
6.03
5.04
3.94
2.79
1.62
0.42
-0.82
-2.10
-3.42
-4.75
-6.10
-7.49
-8.99
-10.61
-12.33
-14.03
-15.44
-16.28
-16.26
-15.20
-13.02
-9.79
-5.62
-0.73
4.64
10.19
15.64
20.75
25.42
29.69
33.62
37.24
40.45
43.03
44.77
45.56
45.50
44.85
43.92
42.99
42.23
41.69
41.38
41.19
40.97
40.47
39.41
37.59
34.93
31.56
27.78
23.91
20.19
16.72
13.45
10.29
7.19
4.20
1.39
-1.17
-3.55
-5.88
-8.33
-10.97
-13.76
-16.50
-18.98
-21.08
-22.85
-24.53
-26.41
-28.73
-31.57
-34.86
-38.39
-41.84
-44.87
-47.07
-48.10
-47.66
-45.63
-42.09
-37.27
-31.51
-25.14
-18.39
-11.38
-4.19
3.06
10.13
16.75
22.63
27.61
31.62
34.72
37.03
38.63
39.57
39.83
39.38
38.26
36.57
34.48
32.16
29.70
27.10
24.35
21.45
18.45
15.47
12.61
9.90
7.30
4.69
1.99
-0.78
-3.56
-6.26
-8.80
-11.18
-13.44
-15.62
-17.78
-19.93
-22.04
-24.03
-25.85
-27.43
-28.74
-29.83
-30.78
-31.72
-32.76
-34.02
-35.50
-37.13
-38.68
-39.87
-40.38
-39.93
-38.35
-35.67
-32.05
-27.69
-22.83
-17.64
-12.20
-6.60
-0.97
4.46
9.47
13.85
17.48
20.34
22.45
23.80
24.36
24.08
23.01
21.31
19.25
17.07
14.96
13.02
11.24
9.60
8.11
6.79
5.63
4.59
3.61
2.55
1.36
0.02
-1.44
-2.95
-4.42
-5.81
-7.09
-8.31
-9.57
-10.96
-12.55
-14.30
-16.14
-17.95
-19.65
-21.22
-22.63
-23.88
-24.94
-25.82
-26.61
-27.48
-28.65
-30.22
-32.14
-34.12
-35.74
-36.57
-36.31
-34.79
-32.03
-28.17
-23.42
-18.08
-12.43
-6.74
-1.20
4.07
9.01
13.60
17.72
21.30
24.26
26.63
28.51
30.00
31.18
32.01
32.43
32.31
31.67
30.62
29.46
28.59
28.47
29.47
31.67
34.78
38.09
40.64
41.52
40.21
36.79
31.88
26.42
21.32
17.17
14.18
12.20
10.83
9.61
8.11
5.98
3.04
-0.69
-4.99
-9.48
-13.71
-17.39
-20.46
-23.09
-25.69
-28.70
-32.52
-37.28
-42.89
-48.96
-54.94
-60.22
-64.34
-67.00
-68.18
-68.02
-66.72
-64.47
-61.38
-57.52
-52.96
-47.88
-42.51
-37.13
-32.01
-27.36
-23.31
-19.93
-17.21
-15.08
-13.39
-11.97
-10.64
-9.26
-7.78
-6.18
-4.54
-2.91
-1.34
0.15
1.56
2.84
3.98
4.95
5.76
6.45
7.11
7.77
8.43
9.00
9.39
9.52
9.38
9.02
8.54
7.96
7.26
6.39
5.32
4.09
2.84
1.73
0.90
0.34
-0.10
-0.66
-1.63
-3.15
-5.22
-7.63
-10.01
-11.91
-13.01
-13.13
-12.27
-10.56
-8.09
-4.91
-0.97
3.76
9.17
14.98
20.77
26.10
30.61
34.20
37.00
39.28
41.26
43.04
44.54
45.61
46.08
45.94
45.30
44.41
43.56
42.97
42.80
43.12
43.92
45.08
46.27
46.93
46.36
43.96
39.53
33.37
26.31
19.33
13.25
8.33
4.25
0.29
-4.24
-9.64
-15.71
-21.80
-27.17
-31.19
-33.47
-33.80
-32.03
-28.03
-21.87
-13.98
-5.29
2.98
9.75
14.57
17.94
21.13
25.68
32.72
42.48
54.23
66.63
78.23
87.93
95.17
99.97
102.71
104.00
104.45
104.46
103.86
101.61
95.86
84.44
65.80
39.87
8.40
-25.33
-57.60
-85.41
-107.23
-122.92
-133.04
-137.90
-137.20
-130.33
-117.22
-99.00
-78.17
-57.90
-40.92
-28.60
-20.69
-15.71
-11.95
-8.30
-4.63
-1.45
0.65
1.57
1.88
2.52
4.33
7.63
12.02
16.47
19.80
21.13
20.29
17.93
15.19
13.30
13.04
14.54
17.28
20.32
22.67
23.56
22.63
20.07
16.67
13.67
12.52
14.26
19.08
26.03
33.36
39.25
42.54
43.16
41.93
39.88
37.60
34.96
31.17
25.15
15.83
2.58
-14.54
-34.57
-55.54
-74.73
-89.41
-97.70
-99.40
-96.12
-90.69
-86.08
-84.24
-85.48
-88.48
-91.02
-90.97
-87.12
-79.46
-69.12
-57.79
-47.05
-37.88
-30.55
-24.91
-20.82
-18.38
-17.92
-19.64
-23.32
-28.14
-32.93
-36.69
-39.12
-40.70
-42.44
-45.18
-48.96
-52.74
-54.76
-53.44
-48.18
-39.88
-30.65
-23.05
-19.16
-19.81
-24.28
-30.47
-35.43
-36.00
-29.66
-15.31
6.05
31.33
55.98
75.46
86.71
89.25
85.14
77.95
71.13
66.68
64.54
63.11
60.24
54.34
44.90
32.59
18.81
5.26
-6.44
-15.00
-19.58
-20.02
-16.84
-11.36
-5.44
-1.16
-0.23
-3.62
-11.19
-21.86
-33.98
-45.71
-55.64
-63.06
-67.95
-70.84
-72.47
-73.45
-74.12
-74.54
-74.55
-73.93
-72.48
-70.12
-66.81
-62.61
-57.61
-51.82
-45.13
-37.17
-27.34
-15.08
-0.12
17.23
36.13
55.29
73.32
89.10
102.06
112.24
120.14
126.45
131.69
136.08
139.45
141.43
141.73
140.37
137.69
134.16
130.14
125.63
120.29
113.57
104.98
94.35
81.85
67.98
53.37
38.69
24.59
11.63
0.33
-8.92
-15.93
-20.85
-24.13
-26.35
-28.04
-29.51
-30.96
-32.54
-34.58
-37.43
-41.23
-45.57
-49.48
-51.73
-51.48
-48.74
-44.51
-40.30
-37.46
-36.50
-36.99
-37.84
-37.95
-36.68
-34.05
-30.54
-26.82
-23.46
-20.71
-18.52
-16.63
-14.69
-12.47
-9.87
-7.00
-4.05
-1.19
1.68
4.83
8.56
12.83
16.97
19.80
20.00
16.79
10.35
1.79
-7.30
-15.62
-22.63
-28.49
-33.54
-37.75
-40.52
-41.03
-38.93
-34.68
-29.45
-24.43
-20.28
-16.84
-13.49
-9.81
-5.95
-2.67
-0.74
-0.53
-1.71
-3.58
-5.57
-7.54
-9.77
-12.61
-16.10
-19.84
-23.23
-25.84
-27.78
-29.60
-31.97
-35.25
-39.20
-43.09
-46.03
-47.40
-47.08
-45.40
-42.90
-40.00
-36.85
-33.34
-29.22
-24.30
-18.52
-12.05
-5.17
1.77
8.37
14.30
19.28
23.12
25.64
26.74
26.39
24.82
22.51
20.15
18.44
17.80
18.19
19.14
20.00
20.27
19.74
18.57
17.13
15.72
14.52
13.51
12.53
11.46
10.22
8.79
7.15
5.32
3.28
1.10
-1.18
-3.43
-5.54
-7.41
-9.03
-10.46
-11.80
-13.20
-14.74
-16.50
-18.54
-20.91
-23.65
-26.67
-29.71
-32.40
-34.33
-35.15
-34.68
-32.89
-29.92
-25.96
-21.29
-16.16
-10.81
-5.46
-0.23
4.78
9.50
13.78
17.47
20.33
22.24
23.20
23.37
23.00
22.39
21.81
21.38
21.15
21.03
20.90
20.61
20.08
19.33
18.43
17.54
16.72
15.96
15.14
14.12
12.83
11.28
9.64
8.04
6.53
5.06
3.47
1.63
-0.45
-2.67
-4.88
-7.05
-9.21
-11.50
-14.02
-16.75
-19.54
-22.21
-24.64
-26.87
-29.06
-31.37
-33.83
-36.28
-38.42
-39.86
-40.25
-39.39
-37.23
-33.88
-29.58
-24.60
-19.17
-13.51
-7.72
-1.92
3.76
9.10
13.85
17.76
20.69
22.71
23.99
24.80
25.30
25.58
25.61
25.37
24.89
24.31
23.74
23.29
22.94
22.55
21.99
21.09
19.77
17.99
15.75
13.15
10.32
7.44
4.68
2.13
-0.22
-2.48
-4.83
-7.34
-9.99
-12.64
-15.09
-17.23
-18.99
-20.42
-21.57
-22.52
-23.40
-24.44
-25.95
-28.24
-31.51
-35.74
-40.63
-45.70
-50.40
-54.26
-56.96
-58.32
-58.29
-56.77
-53.72
-49.07
-42.87
-35.31
-26.72
-17.53
-8.17
0.95
9.52
17.26
23.94
29.40
33.52
36.29
37.83
38.33
38.00
37.03
35.63
33.99
32.32
30.85
29.65
28.69
27.76
26.58
24.94
22.84
20.44
18.10
16.26
15.30
15.42
16.61
18.67
21.33
24.50
28.29
33.09
39.35
47.41
57.15
67.94
78.73
88.34
95.74
100.35
102.09
101.31
98.45
93.84
87.40
78.64
66.92
51.77
33.38
12.78
-8.24
-27.58
-43.39
-54.58
-60.96
-63.09
-61.86
-58.17
-52.79
-46.52
-40.31
-35.31
-32.58
-32.75
-35.58
-39.94
-44.04
-46.07
-44.83
-40.10
-32.67
-23.97
-15.59
-8.77
-4.11
-1.62
-0.81
-0.85
-0.86
0.08
2.71
7.48
14.39
23.00
32.46
41.67
49.53
55.14
58.02
58.14
55.89
51.96
47.08
41.93
36.89
32.15
27.69
23.44
19.40
15.62
12.29
9.64
7.94
7.37
7.93
9.35
11.10
12.51
13.03
12.41
10.81
8.71
6.76
5.54
5.54
6.96
9.80
13.77
18.38
23.06
27.38
31.18
34.68
38.24
42.10
46.23
50.18
53.47
55.76
57.12
57.93
58.61
59.24
59.44
58.37
54.99
48.34
37.70
22.83
4.07
-17.60
-40.62
-63.13
-83.32
-99.98
-112.63
-121.68
-128.02
-132.69
-136.39
-139.29
-141.16
-141.63
-140.58
-138.31
-135.45
-132.60
-129.94
-127.09
-123.36
-118.28
-112.08
-105.65
-99.98
-95.58
-91.97
-87.98
-82.45
-74.92
-65.91
-56.61
-48.01
-40.46
-33.49
-26.38
-18.75
-10.99
-4.02
1.23
4.33
5.70
6.36
7.30
9.05
11.46
13.85
15.71
17.10
18.80
21.99
27.46
35.16
44.16
53.08
60.71
66.36
69.89
71.51
71.66
71.11
71.09
73.08
78.13
85.98
94.47
99.85
98.18
87.03
66.70
40.42
13.20
-10.08
-26.21
-34.28
-35.54
-32.23
-26.56
-20.11
-13.72
-7.88
-3.05
0.26
1.79
1.82
1.33
1.76
4.46
10.10
18.33
27.92
37.22
44.92
50.49
54.35
57.53
61.10
65.68
71.02
76.09
79.40
79.57
75.79
68.10
57.34
44.93
32.43
21.14
11.66
3.90
-2.80
-9.18
-15.52
-21.51
-26.34
-29.29
-30.30
-30.20
-30.40
-32.12
-35.77
-40.66
-45.42
-48.77
-50.28
-50.47
-50.39
-50.89
-52.00
-52.83
-52.10
-48.85
-43.06
-35.76
-28.53
-22.74
-18.92
-16.62
-14.74
-12.09
-7.90
-1.95
5.57
14.10
22.66
29.60
32.78
30.29
21.57
8.36
-5.31
-14.36
-14.81
-5.59
10.81
29.61
45.72
55.81
59.10
56.77
50.60
41.79
30.76
17.57
2.72
-12.47
-26.27
-37.13
-44.35
-48.12
-49.20
-48.20
-45.33
-40.36
-32.97
-23.27
-11.90
-0.04
10.93
19.92
26.35
30.21
31.82
31.58
29.78
26.64
22.37
17.30
11.80
6.19
0.62
-4.80
-9.96
-14.67
-18.69
-22.09
-25.39
-29.64
-35.98
-45.15
-56.99
-70.45
-83.97
-96.06
-105.68
-112.20
-115.00
-113.27
-106.12
-93.08
-74.78
-53.14
-30.96
-10.99
4.99
16.61
24.62
30.14
34.05
36.67
37.94
37.77
36.19
33.35
29.40
24.49
19.04
13.97
10.72
10.76
15.04
23.28
34.03
45.10
54.34
60.46
63.21
63.26
61.71
59.66
57.86
56.67
56.06
55.73
55.25
54.28
52.71
50.71
48.60
46.65
44.89
43.17
41.26
39.02
36.47
33.69
30.79
27.71
24.35
20.65
16.82
13.23
10.43
8.84
8.60
9.53
11.19
13.11
14.88
16.30
17.36
18.25
19.23
20.49
22.02
23.57
24.59
24.35
22.22
17.95
11.92
5.19
-0.84
-4.96
-6.68
-6.49
-5.60
-5.34
-6.57
-9.24
-12.47
-15.00
-15.77
-14.32
-10.92
-6.34
-1.53
2.55
5.01
5.11
2.39
-3.03
-10.29
-17.90
-24.24
-28.28
-29.96
-30.14
-29.96
-30.11
-30.39
-29.75
-26.97
-21.39
-13.42
-4.50
3.43
8.55
9.68
6.54
-0.54
-10.86
-23.78
-38.89
-56.04
-75.10
-95.75
-117.23
-138.33
-157.76
-174.48
-188.06
-198.62
-206.46
-211.61
-213.41
-210.55
-201.47
-185.07
-161.12
-130.48
-94.79
-56.09
-16.48
22.00
57.39
87.78
111.51
127.44
135.36
135.99
130.86
121.80
110.68
99.13
88.43
79.62
73.36
69.99
69.26
70.40
72.08
72.80
71.34
67.14
60.56
52.65
44.78
38.09
33.07
29.50
26.61
23.54
19.69
14.97
9.61
3.94
-1.87
-7.90
-14.31
-21.14
-28.02
-34.14
-38.48
-40.14
-38.81
-34.92
-29.52
-23.85
-18.79
-14.45
-10.14
-4.71
2.87
12.96
25.05
38.00
50.54
61.72
71.18
78.91
85.07
89.77
93.21
95.77
98.10
100.66
103.20
104.17
100.89
90.37
70.67
42.11
7.42
-29.05
-62.88
-90.87
-111.53
-124.61
-130.30
-128.71
-120.03
-105.11
-85.88
-65.18
-45.90
-30.02
-17.92
-8.68
-0.82
6.78
14.38
21.49
27.27
31.03
32.44
31.59
28.84
24.71
19.69
14.25
8.80
3.68
-0.79
-4.34
-6.73
-7.82
-7.53
-5.95
-3.31
0.01
3.59
7.06
10.22
13.03
15.54
17.83
19.94
21.80
23.34
24.51
25.29
25.68
25.67
25.18
24.14
22.56
20.53
18.25
15.95
13.83
12.02
10.61
9.64
9.15
9.12
9.42
9.82
10.02
9.76
8.93
7.63
6.08
4.59
3.41
2.68
2.35
2.27
2.20
1.91
1.28
0.29
-0.90
-2.05
-2.89
-3.23
-2.97
-2.08
-0.56
1.53
4.07
6.84
9.55
11.95
13.87
15.37
16.68
18.08
19.78
21.83
24.05
26.15
27.80
28.72
28.75
27.83
26.00
23.33
19.97
16.13
12.09
8.18
4.74
2.10
0.47
-0.08
0.30
1.29
2.43
3.28
3.50
2.91
1.61
-0.15
-2.03
-3.73
-5.08
-6.08
-6.89
-7.68
-8.70
-10.04
-11.76
-13.74
-15.72
-17.39
-18.35
-18.25
-16.85
-14.11
-10.23
-5.62
-0.87
3.42
6.73
8.76
9.53
9.26
8.28
6.88
5.16
3.08
0.54
-2.51
-5.91
-9.34
-12.30
-14.21
-14.53
-12.81
-8.85
-2.68
5.31
14.47
23.98
33.09
41.27
48.36
54.54
60.16
65.49
70.47
74.64
77.34
78.01
76.47
73.06
68.46
63.36
58.24
53.23
48.26
43.41
39.04
35.77
34.21
34.69
37.04
40.69
44.87
48.99
52.73
56.11
59.28
62.34
65.19
67.44
68.60
68.16
65.91
61.93
56.70
50.85
45.13
40.12
36.17
33.37
31.54
30.39
29.50
28.38
26.34
22.53
16.14
6.82
-5.01
-17.96
-30.04
-39.30
-44.53
-45.69
-43.98
-41.35
-39.99
-41.73
-47.64
-57.87
-71.73
-87.83
-104.37
-119.60
-132.10
-141.02
-146.00
-147.11
-144.68
-139.30
-131.88
-123.62
-115.88
-109.75
-105.65
-103.06
-100.54
-96.17
-88.11
-75.34
-57.98
-37.36
-15.52
5.32
23.39
37.76
48.33
55.57
60.13
62.53
63.12
62.18
60.15
57.68
55.62
54.69
55.09
56.35
57.34
56.61
52.99
46.04
36.25
25.01
14.08
5.06
-1.06
-4.18
-4.91
-4.25
-3.09
-1.84
-0.38
1.78
5.20
10.00
15.70
21.13
24.83
25.47
22.39
15.95
7.58
-0.56
-6.15
-7.35
-3.35
5.55
18.13
32.70
47.63
61.67
73.97
84.02
91.40
95.75
96.78
94.41
88.83
80.44
69.63
56.70
41.79
24.93
6.18
-14.18
-35.51
-56.78
-76.64
-93.69
-106.73
-114.96
-118.25
-117.10
-112.65
-106.40
-99.96
-94.82
-92.06
-92.32
-95.68
-101.67
-109.31
-117.09
-123.11
-125.37
-122.17
-112.80
-97.96
-79.78
-61.26
-45.27
-33.54
-26.16
-21.76
-18.32
-14.02
-7.96
-0.19
8.57
17.39
25.50
32.36
37.58
40.84
41.82
40.40
36.78
31.56
25.67
20.11
15.58
12.21
9.48
6.49
2.32
-3.51
-10.86
-19.00
-26.92
-33.78
-39.13
-43.11
-46.42
-50.05
-54.89
-61.33
-68.99
-76.71
-82.90
-86.04
-85.22
-80.33
-72.05
-61.51
-49.86
-38.01
-26.52
-15.69
-5.62
3.72
12.51
21.04
29.59
38.40
47.49
56.77
66.01
74.95
83.33
90.89
97.42
102.67
106.54
108.97
110.06
109.93
108.65
106.27
102.93
98.95
94.87
91.31
88.73
87.24
86.57
86.26
85.90
85.22
84.18
82.66
80.28
76.47
70.66
62.73
53.26
43.53
35.17
29.75
28.27
31.00
37.24
45.40
53.13
57.66
56.43
47.77
31.64
9.86
-14.17
-36.48
-53.76
-64.51
-69.41
-70.89
-71.95
-74.99
-81.05
-89.73
-99.67
-109.33
-117.59
-123.93
-128.32
-130.85
-131.53
-130.28
-127.04
-121.93
-115.32
-107.77
-99.98
-92.60
-86.15
-80.96
-77.15
-74.70
-73.51
-73.46
-74.37
-75.91
-77.59
-78.75
-78.66
-76.70
-72.53
-66.31
-58.63
-50.39
-42.52
-35.68
-30.17
-26.04
-23.31
-22.09
-22.63
-25.08
-29.18
-34.11
-38.56
-41.12
-40.81
-37.41
-31.43
-23.92
-15.91
-8.18
-1.08
5.37
11.28
16.75
21.80
26.43
30.67
34.59
38.26
41.67
44.64
46.85
47.90
47.56
45.78
42.75
38.84
34.44
29.86
25.34
21.07
17.31
14.44
12.83
12.71
14.11
16.81
20.47
24.69
29.11
33.43
37.41
40.86
43.61
45.64
46.94
47.57
47.60
47.07
46.03
44.55
42.75
40.78
38.75
36.70
34.64
32.58
30.53
28.57
26.72
24.95
23.16
21.29
19.27
17.16
15.00
12.82
10.59
8.25
5.77
3.18
0.57
-1.97
-4.41
-6.78
-9.15
-11.49
-13.67
-15.44
-16.50
-16.59
-15.63
-13.67
-10.89
-7.51
-3.68
0.52
5.04
9.78
14.55
19.02
22.81
25.60
27.22
27.65
26.98
25.39
23.07
20.23
17.09
13.88
10.80
8.02
5.62
3.64
2.05
0.77
-0.30
-1.29
-2.29
-3.41
-4.64
-5.94
-7.24
-8.44
-9.51
-10.43
-11.25
-11.99
-12.75
-13.58
-14.54
-15.62
-16.79
-18.02
-19.33
-20.77
-22.36
-24.07
-25.70
-26.93
-27.42
-26.88
-25.10
-22.03
-17.62
-11.90
-4.98
2.87
11.20
19.49
27.24
34.21
40.37
45.90
50.97
55.71
60.04
63.66
66.13
66.93
65.68
62.25
56.94
50.42
43.64
37.53
32.68
29.24
26.87
24.93
22.60
19.12
13.93
6.81
-1.98
-11.67
-21.14
-29.20
-35.01
-38.32
-39.61
-39.79
-39.87
-40.50
-41.83
-43.56
-45.23
-46.46
-47.15
-47.38
-47.28
-46.85
-45.91
-44.17
-41.33
-37.10
-31.21
-23.44
-13.85
-3.07
7.64
16.57
22.14
23.53
21.11
16.23
10.67
5.93
2.72
0.94
-0.01
-0.74
-1.61
-2.66
-3.74
-4.63
-5.19
-5.44
-5.60
-6.03
-7.10
-9.04
-11.80
-15.15
-18.75
-22.25
-25.44
-28.23
-30.65
-32.76
-34.79
-37.01
-39.72
-43.09
-47.04
-51.34
-55.80
-60.63
-66.65
-75.16
-87.36
-103.68
-123.16
-143.33
-160.78
-171.98
-174.42
-167.36
-152.12
-131.57
-109.26
-88.31
-70.60
-56.61
-45.77
-37.23
-30.44
-25.44
-22.56
-22.17
-24.36
-28.61
-33.53
-36.48
-33.47
-19.88
7.89
50.36
103.47
158.84
205.91
235.41
242.44
227.90
197.63
159.71
121.61
88.07
60.73
39.09
22.04
9.18
1.24
-0.47
4.83
16.44
32.04
48.46
62.88
73.90
81.66
87.11
90.92
92.69
91.04
84.49
72.50
56.11
37.68
20.07
5.54
-4.85
-11.36
-15.05
-17.16
-18.52
-19.28
-19.01
-17.06
-13.05
-7.18
-0.22
6.70
12.59
16.90
19.68
21.39
22.61
23.77
24.94
26.00
26.69
26.88
26.64
26.21
25.94
26.06
26.66
27.65
28.81
29.86
30.58
30.80
30.44
29.50
27.99
25.94
23.41
20.47
17.23
13.85
10.45
7.13
3.91
0.75
-2.39
-5.51
-8.56
-11.43
-14.02
-16.32
-18.36
-20.16
-21.73
-23.04
-24.04
-24.74
-25.24
-25.78
-26.52
-27.55
-28.73
-29.73
-30.15
-29.63
-27.96
-25.14
-21.30
-16.67
-11.52
-6.05
-0.50
4.89
9.86
14.13
17.53
20.02
21.64
22.54
22.85
22.65
22.01
20.97
19.60
18.05
16.49
15.10
14.00
13.27
12.88
12.74
12.73
12.72
12.61
12.38
12.01
11.52
10.92
10.18
9.32
8.38
7.40
6.40
5.38
4.24
2.96
1.51
-0.06
-1.65
-3.16
-4.52
-5.77
-6.97
-8.25
-9.71
-11.48
-13.64
-16.17
-18.98
-21.84
-24.41
-26.35
-27.41
-27.46
-26.46
-24.48
-21.63
-18.06
-13.97
-9.65
-5.39
-1.46
1.95
4.82
7.17
9.12
10.71
11.93
12.77
13.24
13.40
13.37
13.30
13.23
13.19
13.15
13.02
12.76
12.41
12.00
11.63
11.34
11.14
10.99
10.85
10.66
10.38
9.97
9.40
8.65
7.69
6.53
5.21
3.76
2.26
0.74
-0.81
-2.40
-4.06
-5.77
-7.48
-9.09
-10.55
-11.86
-13.13
-14.52
-16.17
-18.04
-19.96
-21.55
-22.38
-22.11
-20.59
-17.88
-14.23
-10.01
-5.56
-1.21
2.83
6.43
9.52
12.08
14.09
15.57
16.51
16.94
16.92
16.53
15.89
15.14
14.42
13.88
13.59
13.59
13.81
14.15
14.49
14.72
14.81
14.81
14.80
14.85
14.99
15.20
15.40
15.42
15.10
14.29
12.93
11.10
8.96
6.70
4.48
2.36
0.38
-1.46
-3.09
-4.48
-5.62
-6.57
-7.47
-8.46
-9.61
-10.92
-12.32
-13.78
-15.31
-16.89
-18.44
-19.78
-20.67
-20.91
-20.35
-18.99
-16.90
-14.19
-10.99
-7.41
-3.60
0.24
3.87
7.07
9.70
11.77
13.34
14.52
15.38
15.97
16.29
16.34
16.15
15.74
15.11
14.24
13.12
11.79
10.37
8.97
7.71
6.58
5.46
4.19
2.69
0.97
-0.84
-2.56
-4.11
-5.49
-6.82
-8.24
-9.83
-11.59
-13.47
-15.41
-17.37
-19.34
-21.31
-23.22
-24.97
-26.46
-27.64
-28.55
-29.32
-30.07
-30.89
-31.73
-32.42
-32.73
-32.38
-31.13
-28.85
-25.55
-21.34
-16.41
-11.08
-5.65
-0.45
4.25
8.24
11.38
13.63
15.01
15.66
15.76
15.52
15.09
14.56
13.97
13.26
12.45
11.59
10.78
10.16
9.79
9.68
9.74
9.83
9.79
9.50
8.92
8.03
6.94
5.76
4.65
3.69
2.92
2.31
1.77
1.25
0.70
0.14
-0.43
-0.97
-1.50
-2.00
-2.47
-2.96
-3.52
-4.26
-5.25
-6.52
-8.00
-9.57
-11.03
-12.18
-12.86
-12.89
-12.17
-10.65
-8.37
-5.47
-2.18
1.24
4.56
7.54
10.07
12.04
13.40
14.16
14.34
13.98
13.16
11.98
10.53
8.96
7.42
6.03
4.87
4.00
3.39
3.02
2.79
2.66
2.56
2.46
2.33
2.17
1.94
1.65
1.28
0.82
0.32
-0.21
-0.75
-1.30
-1.87
-2.49
-3.15
-3.84
-4.51
-5.14
-5.72
-6.27
-6.86
-7.57
-8.45
-9.43
-10.39
-11.12
-11.47
-11.44
-11.15
-10.78
-10.54
-10.44
-10.32
-9.89
-8.84
-6.99
-4.34
-1.07
2.58
6.30
9.87
13.08
15.78
17.86
19.23
19.82
19.61
18.62
16.95
14.69
11.98
8.99
5.87
2.79
-0.09
-2.64
-4.76
-6.43
-7.64
-8.41
-8.74
-8.65
-8.17
-7.35
-6.26
-4.95
-3.44
-1.80
-0.07
1.65
3.26
4.64
5.73
6.49
6.94
7.15
7.22
7.30
7.53
8.01
8.80
9.82
10.98
12.09
13.01
13.62
13.91
13.93
13.79
13.62
13.43
13.21
12.83
12.18
11.25
10.12
8.93
7.80
6.81
5.92
5.06
4.16
3.21
2.27
1.43
0.74
0.18
-0.33
-0.92
-1.70
-2.62
-3.53
-4.24
-4.60
-4.59
-4.37
-4.18
-4.24
-4.61
-5.22
-5.91
-6.57
-7.17
-7.76
-8.39
-9.06
-9.70
-10.23
-10.64
-10.97
-11.31
-11.69
-12.04
-12.26
-12.25
-12.01
-11.64
-11.32
-11.16
-11.21
-11.39
-11.61
-11.83
-12.09
-12.52
-13.23
-14.25
-15.45
-16.60
-17.44
-17.73
-17.34
-16.24
-14.47
-12.11
-9.26
-6.06
-2.69
0.65
3.74
6.38
8.46
9.97
10.93
11.46
11.64
11.56
11.29
10.92
10.52
10.19
9.97
9.84
9.67
9.33
8.70
7.77
6.69
5.63
4.76
4.15
3.74
3.40
2.98
2.39
1.59
0.67
-0.27
-1.11
-1.77
-2.23
-2.53
-2.73
-2.88
-3.04
-3.17
-3.28
-3.37
-3.46
-3.59
-3.76
-3.99
-4.28
-4.65
-5.16
-5.87
-6.80
-7.88
-8.95
-9.79
-10.17
-9.91
-8.96
-7.38
-5.35
-3.10
-0.87
1.16
2.91
4.33
5.43
6.25
6.86
7.33
7.69
7.98
8.15
8.16
7.97
7.54
6.92
6.16
5.39
4.66
4.07
3.61
3.29
3.08
2.93
2.83
2.76
2.70
2.63
2.53
2.37
2.13
1.81
1.43
1.03
0.64
0.30
0.04
-0.11
-0.11
0.05
0.38
0.78
1.14
1.26
1.01
0.31
-0.79
-2.17
-3.67
-5.15
-6.44
-7.43
-7.96
-7.90
-7.15
-5.75
-3.86
-1.72
0.42
2.38
4.09
5.57
6.87
7.96
8.77
9.22
9.22
8.78
8.00
7.02
6.02
5.15
4.60
4.47
4.83
5.60
6.62
7.64
8.47
9.03
9.39
9.71
10.16
10.83
11.69
12.61
13.52
14.41
15.32
16.35
17.54
18.90
20.37
21.92
23.55
25.24
26.83
28.00
28.24
26.93
23.60
18.12
10.90
2.72
-5.44
-12.76
-18.77
-23.39
-26.85
-29.46
-31.45
-32.93
-33.88
-34.23
-33.92
-32.95
-31.34
-29.23
-26.79
-24.27
-21.86
-19.69
-17.74
-15.89
-13.98
-11.78
-9.09
-5.69
-1.45
3.62
9.24
14.87
19.81
23.36
25.13
25.08
23.51
20.88
17.59
13.84
9.71
5.25
0.61
-3.91
-7.95
-11.23
-13.61
-15.15
-15.99
-16.35
-16.37
-16.19
-15.91
-15.71
-15.75
-16.22
-17.19
-18.59
-20.12
-21.31
-21.72
-20.98
-19.06
-16.14
-12.60
-8.86
-5.25
-1.92
1.10
3.77
6.05
7.84
9.08
9.84
10.26
10.59
11.00
11.52
12.11
12.64
12.99
13.15
13.16
13.11
13.08
13.05
12.98
12.75
12.33
11.67
10.83
9.87
8.88
7.92
7.00
6.11
5.24
4.35
3.42
2.46
1.43
0.33
-0.84
-2.09
-3.33
-4.49
-5.49
-6.30
-7.00
-7.70
-8.55
-9.62
-10.86
-12.08
-13.08
-13.67
-13.77
-13.39
-12.61
-11.53
-10.23
-8.82
-7.44
-6.20
-5.17
-4.38
-3.76
-3.21
-2.62
-1.94
-1.19
-0.38
0.47
1.33
2.20
3.09
4.07
5.28
6.84
8.89
11.48
14.62
18.27
22.34
26.75
31.42
36.25
41.22
46.38
51.83
57.64
63.73
69.76
75.07
78.84
80.30
78.97
74.73
67.81
58.65
47.63
35.03
20.93
5.44
-11.25
-28.68
-46.21
-63.05
-78.41
-91.60
-102.04
-109.29
-113.12
-113.57
-111.10
-106.47
-100.56
-94.09
-87.34
-80.20
-72.32
-63.51
-53.92
-44.04
-34.45
-25.56
-17.47
-10.06
-3.18
3.18
8.91
13.86
17.98
21.38
24.19
26.47
28.18
29.19
29.45
29.02
28.09
26.92
25.69
24.51
23.41
22.47
21.78
21.54
22.01
23.43
25.99
29.65
34.12
38.81
42.97
45.87
47.04
46.47
44.58
42.07
39.70
38.05
37.42
37.76
38.77
39.95
40.70
40.50
39.00
36.21
32.57
28.82
25.78
23.98
23.39
23.35
22.85
20.94
17.20
11.84
5.57
-0.75
-6.54
-11.62
-16.22
-20.69
-25.39
-30.51
-36.10
-42.05
-48.05
-53.57
-57.90
-60.36
-60.53
-58.44
-54.54
-49.52
-44.06
-38.57
-33.24
-28.13
-23.34
-19.07
-15.58
-13.05
-11.51
-10.75
-10.47
-10.33
-10.15
-9.86
-9.58
-9.43
-9.51
-9.83
-10.26
-10.58
-10.55
-9.96
-8.68
-6.70
-4.11
-1.05
2.25
5.61
8.83
11.76
14.31
16.40
17.95
18.88
19.18
18.90
18.21
17.31
16.41
15.66
15.07
14.56
14.01
13.36
12.55
11.60
10.50
9.18
7.58
5.65
3.38
0.93
-1.45
-3.55
-5.21
-6.45
-7.44
-8.43
-9.58
-10.89
-12.21
-13.33
-14.12
-14.59
-14.93
-15.33
-15.90
-16.57
-17.16
-17.46
-17.38
-16.94
-16.26
-15.42
-14.40
-13.05
-11.26
-8.96
-6.21
-3.22
-0.25
2.49
4.87
6.82
8.37
9.51
10.25
10.60
10.69
10.67
10.68
10.87
11.24
11.72
12.18
12.48
12.59
12.56
12.51
12.58
12.83
13.25
13.74
14.16
14.40
14.39
14.12
13.63
12.99
12.22
11.32
10.25
8.93
7.26
5.16
2.57
-0.49
-3.91
-7.59
-11.37
-15.12
-18.71
-22.00
-24.82
-27.04
-28.57
-29.39
-29.56
-29.15
-28.20
-26.70
-24.61
-21.95
-18.82
-15.40
-11.95
-8.67
-5.74
-3.22
-1.14
0.54
1.82
2.71
3.21
3.34
3.13
2.63
1.96
1.21
0.48
-0.15
-0.66
-1.05
-1.35
-1.55
-1.67
-1.68
-1.63
-1.55
-1.51
-1.58
-1.81
-2.26
-2.95
-3.86
-4.94
-6.12
-7.31
-8.37
-9.22
-9.83
-10.25
-10.60
-11.01
-11.58
-12.30
-13.10
-13.86
-14.46
-14.84
-14.96
-14.78
-14.22
-13.17
-11.54
-9.35
-6.69
-3.73
-0.67
2.33
5.19
7.85
10.35
12.68
14.82
16.63
18.00
18.80
19.05
18.88
18.53
18.24
18.20
18.51
19.13
19.95
20.75
21.34
21.47
20.97
19.79
18.04
15.97
13.90
12.08
10.60
9.35
8.04
6.40
4.26
1.62
-1.29
-4.15
-6.73
-8.86
-10.62
-12.15
-13.61
-15.08
-16.57
-18.02
-19.39
-20.63
-21.70
-22.50
-22.92
-22.83
-22.17
-20.97
-19.33
-17.40
-15.25
-12.92
-10.43
-7.80
-5.06
-2.26
0.59
3.48
6.40
9.24
11.83
13.93
15.32
15.92
15.81
15.17
14.26
13.25
12.22
11.12
9.86
8.36
6.67
4.90
3.22
1.77
0.60
-0.31
-1.06
-1.79
-2.60
-3.56
-4.72
-6.11
-7.68
-9.33
-10.92
-12.32
-13.49
-14.47
-15.37
-16.33
-17.45
-18.75
-20.23
-21.84
-23.51
-25.12
-26.54
-27.64
-28.34
-28.60
-28.40
-27.70
-26.46
-24.63
-22.22
-19.32
-16.12
-12.78
-9.47
-6.29
-3.32
-0.65
1.62
3.42
4.69
5.46
5.80
5.75
5.38
4.71
3.80
2.71
1.50
0.22
-1.11
-2.53
-4.09
-5.85
-7.81
-9.96
-12.25
-14.65
-17.12
-19.59
-22.01
-24.24
-26.15
-27.55
-28.29
-28.23
-27.35
-25.68
-23.34
-20.48
-17.33
-14.09
-11.00
-8.30
-6.16
-4.70
-3.90
-3.67
-3.83
-4.19
-4.50
-4.55
-4.17
-3.21
-1.64
0.46
2.91
5.48
7.96
10.23
12.28
14.15
15.91
17.58
19.11
20.40
21.38
22.01
22.24
22.07
21.47
20.43
18.99
17.26
15.43
13.75
12.38
11.40
10.72
10.16
9.53
8.73
7.77
6.71
5.66
4.66
3.71
2.79
1.85
0.89
-0.07
-1.03
-2.03
-3.12
-4.34
-5.68
-7.08
-8.44
-9.67
-10.74
-11.70
-12.63
-13.59
-14.55
-15.41
-15.98
-16.10
-15.67
-14.68
-13.17
-11.21
-8.89
-6.27
-3.44
-0.53
2.37
5.14
7.67
9.89
11.72
13.08
13.96
14.40
14.51
14.45
14.33
14.18
13.99
13.72
13.39
13.07
12.85
12.76
12.70
12.53
12.08
11.31
10.32
9.25
8.27
7.42
6.65
5.84
4.89
3.74
2.37
0.82
-0.87
-2.61
-4.38
-6.09
-7.69
-9.15
-10.46
-11.66
-12.84
-14.08
-15.44
-16.93
-18.39
-19.57
-20.16
-19.88
-18.62
-16.45
-13.64
-10.49
-7.25
-4.03
-0.80
2.43
5.64
8.69
11.32
13.31
14.56
15.13
15.22
15.08
14.89
14.74
14.61
14.47
14.30
14.15
14.05
14.07
14.17
14.24
14.14
13.71
12.86
11.63
10.13
8.58
7.16
6.02
5.21
4.63
4.15
3.65
3.04
2.29
1.40
0.39
-0.71
-1.87
-3.06
-4.26
-5.47
-6.72
-8.08
-9.58
-11.21
-12.86
-14.34
-15.38
-15.77
-15.40
-14.29
-12.59
-10.48
-8.07
-5.40
-2.41
0.92
4.52
8.18
11.61
14.49
16.64
18.04
18.86
19.30
19.59
19.86
20.15
20.46
20.74
20.93
20.97
20.83
20.44
19.78
18.87
17.78
16.62
15.56
14.75
14.25
14.09
14.16
14.33
14.39
14.16
13.52
12.39
10.80
8.79
6.47
3.94
1.34
-1.25
-3.79
-6.25
-8.63
-10.92
-13.02
-14.85
-16.28
-17.21
-17.57
-17.31
-16.37
-14.70
-12.29
-9.16
-5.46
-1.38
2.83
6.94
10.73
14.05
16.77
18.77
20.01
20.51
20.37
19.77
18.89
17.90
16.94
16.11
15.47
15.03
14.77
14.64
14.53
14.35
14.03
13.54
12.87
12.02
10.96
9.66
8.13
6.46
4.76
3.16
1.71
0.39
-0.88
-2.18
-3.52
-4.86
-6.12
-7.25
-8.20
-8.96
-9.54
-9.99
-10.36
-10.75
-11.23
-11.84
-12.54
-13.22
-13.66
-13.65
-12.96
-11.43
-9.04
-5.90
-2.25
1.66
5.51
9.08
12.19
14.71
16.53
17.59
17.89
17.51
16.57
15.18
13.42
11.36
9.13
6.90
4.95
3.52
2.68
2.21
1.65
0.43
-1.84
-5.23
-9.37
-13.63
-17.32
-19.90
-21.12
-21.01
-19.80
-17.83
-15.50
-13.16
-11.13
-9.59
-8.58
-7.98
-7.57
-7.13
-6.55
-5.89
-5.34
-5.13
-5.45
-6.39
-7.86
-9.60
-11.30
-12.61
-13.27
-13.23
-12.56
-11.41
-9.93
-8.24
-6.40
-4.49
-2.62
-1.00
0.17
0.73
0.63
-0.06
-1.17
-2.47
-3.71
-4.67
-5.17
-5.15
-4.68
-3.90
-3.03
-2.23
-1.58
-1.05
-0.60
-0.26
-0.13
-0.35
-1.04
-2.21
-3.67
-5.11
-6.24
-6.88
-7.01
-6.74
-6.17
-5.32
-4.13
-2.49
-0.43
1.88
4.13
6.04
7.46
8.44
9.17
9.86
10.62
11.40
12.10
12.63
12.99
13.37
13.99
15.02
16.52
18.29
20.04
21.38
22.01
21.77
20.64
18.75
16.31
13.56
10.72
8.00
5.56
3.55
2.04
1.09
0.68
0.73
1.07
1.50
1.81
1.85
1.61
1.09
0.39
-0.47
-1.51
-2.77
-4.31
-6.15
-8.23
-10.38
-12.44
-14.18
-15.46
-16.22
-16.53
-16.57
-16.56
-16.67
-16.99
-17.53
-18.25
-19.02
-19.70
-20.09
-19.92
-19.00
-17.27
-14.84
-11.98
-9.01
-6.19
-3.63
-1.32
0.78
2.71
4.44
5.95
7.21
8.22
8.97
9.49
9.80
9.97
10.07
10.17
10.29
10.39
10.32
9.98
9.31
8.35
7.24
6.11
5.05
4.13
3.32
2.63
2.06
1.65
1.40
1.28
1.22
1.18
1.17
1.20
1.29
1.40
1.41
1.21
0.69
-0.09
-1.00
-1.75
-2.12
-1.92
-1.13
0.18
1.92
3.96
6.27
8.83
11.61
14.51
17.35
19.88
21.83
23.03
23.45
23.26
22.78
22.45
22.59
23.36
24.67
26.24
27.73
28.87
29.64
30.20
30.85
31.83
33.20
34.77
36.13
36.80
36.40
34.83
32.34
29.47
26.90
25.21
24.68
25.17
26.30
27.58
28.65
29.46
30.24
31.40
33.31
36.23
40.10
44.62
49.34
53.68
57.21
59.68
61.15
61.89
62.25
62.44
62.42
61.90
60.48
57.86
54.05
49.41
44.58
40.27
37.04
35.10
34.25
33.98
33.72
33.02
31.76
30.10
28.30
26.50
24.59
22.23
19.02
14.83
9.87
4.65
-0.20
-4.24
-7.36
-9.80
-11.97
-14.25
-16.81
-19.60
-22.42
-25.06
-27.35
-29.25
-30.71
-31.65
-31.96
-31.58
-30.55
-29.06
-27.43
-25.95
-24.82
-24.11
-23.73
-23.53
-23.32
-22.95
-22.27
-21.20
-19.70
-17.80
-15.61
-13.22
-10.72
-8.15
-5.52
-2.85
-0.20
2.33
4.61
6.56
8.10
9.18
9.77
9.76
9.01
7.37
4.77
1.33
-2.69
-6.90
-10.98
-14.72
-18.06
-21.08
-23.88
-26.50
-28.99
-31.40
-33.80
-36.32
-39.01
-41.86
-44.75
-47.61
-50.36
-53.01
-55.52
-57.77
-59.54
-60.55
-60.64
-59.86
-58.46
-56.86
-55.44
-54.45
-53.96
-53.84
-53.83
-53.65
-53.00
-51.60
-49.24
-45.84
-41.61
-37.03
-32.86
-29.87
-28.56
-28.88
-30.23
-31.67
-32.26
-31.45
-29.22
-25.91
-21.98
-17.77
-13.40
-8.90
-4.36
-0.06
3.69
6.63
8.79
10.44
12.00
13.81
15.89
17.98
19.66
20.59
20.68
20.12
19.28
18.49
17.90
17.36
16.47
14.74
11.70
7.12
1.11
-5.96
-13.47
-20.79
-27.41
-33.06
-37.71
-41.53
-44.72
-47.51
-50.01
-52.27
-54.27
-55.92
-57.15
-57.85
-57.92
-57.28
-55.91
-53.82
-51.14
-48.02
-44.62
-41.09
-37.44
-33.58
-29.38
-24.76
-19.72
-14.45
-9.22
-4.36
-0.13
3.33
6.03
8.04
9.49
10.54
11.28
11.84
12.35
12.90
13.59
14.45
15.37
16.17
16.65
16.64
16.10
15.11
13.83
12.39
10.85
9.18
7.31
5.20
2.91
0.56
-1.71
-3.79
-5.68
-7.41
-9.10
-10.85
-12.73
-14.77
-16.94
-19.17
-21.34
-23.30
-24.91
-26.00
-26.45
-26.12
-24.94
-22.83
-19.77
-15.88
-11.35
-6.50
-1.70
2.69
6.39
9.19
11.03
11.94
11.99
11.31
10.04
8.37
6.50
4.62
2.90
1.46
0.33
-0.54
-1.25
-1.90
-2.56
-3.26
-3.97
-4.61
-5.11
-5.42
-5.53
-5.50
-5.42
-5.46
-5.73
-6.30
-7.17
-8.23
-9.36
-10.44
-11.41
-12.28
-13.07
-13.82
-14.50
-15.10
-15.61
-16.10
-16.60
-17.12
-17.55
-17.67
-17.20
-15.90
-13.67
-10.55
-6.74
-2.48
1.97
6.45
10.82
14.97
18.79
22.13
24.85
26.86
28.18
28.92
29.18
29.03
28.43
27.32
25.66
23.56
21.23
18.94
16.94
15.31
14.00
12.86
11.71
10.44
9.04
7.61
6.27
5.13
4.18
3.36
2.53
1.59
0.46
-0.82
-2.18
-3.53
-4.81
-5.98
-7.03
-7.97
-8.84
-9.67
-10.57
-11.62
-12.94
-14.53
-16.38
-18.31
-20.03
-21.20
-21.45
-20.53
-18.41
-15.31
-11.64
-7.93
-4.58
-1.76
0.60
2.73
4.82
6.94
8.95
10.58
11.59
11.87
11.45
10.51
9.28
7.94
6.63
5.44
4.48
3.82
3.56
3.70
4.18
4.90
5.68
6.34
6.77
6.92
6.81
6.49
5.93
5.04
3.69
1.78
-0.66
-3.42
-6.21
-8.77
-11.01
-13.01
-15.01
-17.21
-19.69
-22.34
-24.96
-27.36
-29.47
-31.41
-33.31
-35.29
-37.29
-39.10
-40.41
-40.87
-40.29
-38.59
-35.80
-32.05
-27.50
-22.29
-16.58
-10.55
-4.41
1.61
7.31
12.48
16.97
20.62
23.39
25.29
26.37
26.76
26.60
26.08
25.36
24.63
24.04
23.63
23.38
23.13
22.71
21.99
20.94
19.61
18.09
16.41
14.55
12.50
10.28
8.02
5.92
4.15
2.75
1.62
0.56
-0.63
-2.04
-3.64
-5.28
-6.83
-8.20
-9.42
-10.56
-11.75
-13.07
-14.55
-16.18
-17.91
-19.74
-21.70
-23.77
-25.85
-27.71
-29.04
-29.50
-28.85
-27.04
-24.11
-20.28
-15.75
-10.73
-5.41
0.06
5.45
10.55
15.14
19.07
22.23
24.61
26.27
27.32
27.89
28.07
27.93
27.52
26.89
26.11
25.30
24.54
23.85
23.22
22.63
22.04
21.46
20.88
20.29
19.64
18.83
17.77
16.38
14.65
12.61
10.30
7.83
5.31
2.94
0.85
-0.87
-2.23
-3.35
-4.36
-5.33
-6.26
-7.11
-7.81
-8.39
-8.95
-9.62
-10.50
-11.61
-12.93
-14.33
-15.68
-16.79
-17.40
-17.28
-16.20
-14.06
-10.90
-6.91
-2.40
2.31
6.94
11.30
15.31
18.91
22.06
24.74
26.88
28.47
29.58
30.31
30.82
31.28
31.80
32.51
33.52
34.91
36.76
39.03
41.60
44.28
46.91
49.41
51.73
53.86
55.70
57.14
58.06
58.37
58.10
57.36
56.28
54.95
53.35
51.43
49.17
46.62
43.89
41.09
38.36
35.71
33.08
30.35
27.30
23.75
19.48
14.37
8.38
1.61
-5.64
-12.95
-19.85
-25.92
-30.93
-34.85
-37.82
-40.12
-42.08
-44.01
-46.25
-49.05
-52.61
-56.97
-62.04
-67.51
-72.93
-77.85
-81.92
-84.99
-87.07
-88.26
-88.61
-88.04
-86.37
-83.39
-78.97
-73.09
-65.92
-57.76
-48.96
-39.85
-30.73
-21.78
-13.15
-4.92
2.80
9.91
16.26
21.80
26.53
30.56
34.02
36.98
39.39
41.09
41.91
41.76
40.72
39.03
36.96
34.73
32.46
30.12
27.67
25.03
22.19
19.17
15.99
12.67
9.23
5.75
2.35
-0.80
-3.50
-5.60
-6.94
-7.46
-7.12
-5.94
-4.01
-1.50
1.39
4.39
7.25
9.79
11.86
13.43
14.49
15.11
15.32
15.15
14.62
13.72
12.48
11.00
9.42
7.90
6.59
5.59
4.93
4.60
4.54
4.67
4.91
5.20
5.47
5.66
5.74
5.68
5.53
5.31
5.08
4.85
4.62
4.34
3.99
3.58
3.13
2.68
2.25
1.79
1.24
0.52
-0.44
-1.64
-3.02
-4.54
-6.15
-7.91
-9.93
-12.29
-14.94
-17.70
-20.18
-21.98
-22.71
-22.18
-20.40
-17.54
-13.88
-9.69
-5.20
-0.66
3.71
7.66
10.98
13.59
15.53
16.96
18.05
18.90
19.52
19.83
19.75
19.29
18.58
17.79
17.10
16.60
16.31
16.13
16.00
15.84
15.62
15.33
14.93
14.39
13.71
12.93
12.13
11.38
10.68
9.99
9.21
8.26
7.14
5.91
4.63
3.29
1.85
0.23
-1.55
-3.41
-5.18
-6.75
-8.11
-9.41
-10.86
-12.62
-14.72
-17.05
-19.38
-21.47
-23.08
-23.99
-24.02
-23.05
-21.10
-18.30
-14.94
-11.36
-7.82
-4.42
-1.14
2.11
5.35
8.51
11.35
13.64
15.20
15.96
16.00
15.47
14.58
13.52
12.45
11.48
10.67
10.08
9.74
9.61
9.62
9.67
9.65
9.50
9.25
8.96
8.70
8.51
8.32
8.03
7.56
6.89
6.04
5.07
4.01
2.84
1.55
0.15
-1.28
-2.66
-3.94
-5.12
-6.25
-7.39
-8.59
-9.90
-11.38
-13.06
-14.97
-17.05
-19.13
-20.92
-22.11
-22.40
-21.67
-19.95
-17.42
-14.32
-10.91
-7.36
-3.79
-0.28
3.07
6.18
8.98
11.38
13.35
14.91
16.09
16.93
17.46
17.64
17.52
17.17
16.72
16.31
16.02
15.83
15.64
15.35
14.90
14.31
13.65
13.00
12.38
11.78
11.13
10.40
9.55
8.57
7.49
6.34
5.12
3.89
2.66
1.45
0.27
-0.93
-2.21
-3.64
-5.24
-6.94
-8.68
-10.36
-11.98
-13.57
-15.25
-17.11
-19.12
-21.11
-22.78
-23.79
-23.87
-22.93
-21.05
-18.41
-15.24
-11.72
-7.98
-4.09
-0.13
3.77
7.42
10.60
13.16
15.03
16.27
17.00
17.38
17.50
17.41
17.13
16.67
16.11
15.53
14.99
14.52
14.11
13.73
13.34
12.92
12.48
12.06
11.64
11.15
10.50
9.62
8.46
7.05
5.51
3.96
2.50
1.17
-0.07
-1.33
-2.70
-4.19
-5.75
-7.25
-8.61
-9.81
-10.96
-12.16
-13.53
-15.09
-16.78
-18.48
-20.01
-21.24
-21.98
-22.08
-21.42
-19.92
-17.65
-14.75
-11.45
-7.95
-4.38
-0.80
2.77
6.26
9.50
12.29
14.49
16.04
17.05
17.70
18.15
18.52
18.83
19.03
19.10
19.02
18.84
18.60
18.32
17.98
17.53
16.92
16.18
15.30
14.34
13.34
12.37
11.44
10.50
9.53
8.46
7.30
6.08
4.84
3.58
2.31
0.96
-0.50
-2.03
-3.57
-4.95
-6.08
-6.97
-7.73
-8.54
-9.58
-10.93
-12.58
-14.46
-16.47
-18.48
-20.27
-21.60
-22.17
-21.80
-20.39
-18.05
-14.99
-11.44
-7.63
-3.70
0.20
3.93
7.27
10.07
12.24
13.78
14.80
15.38
15.57
15.37
14.80
13.98
13.11
12.38
11.92
11.68
11.52
11.21
10.58
9.64
8.50
7.32
6.26
5.38
4.67
4.10
3.59
3.05
2.37
1.47
0.31
-1.07
-2.58
-4.08
-5.48
-6.73
-7.88
-8.99
-10.11
-11.22
-12.27
-13.20
-14.00
-14.75
-15.60
-16.71
-18.15
-19.83
-21.46
-22.65
-23.02
-22.40
-20.80
-18.45
-15.58
-12.42
-9.07
-5.64
-2.21
1.10
4.15
6.78
8.95
10.64
11.91
12.83
13.48
13.94
14.23
14.36
14.26
13.92
13.33
12.59
11.86
11.26
10.87
10.64
10.50
10.34
10.10
9.75
9.29
8.71
8.03
7.27
6.48
5.69
4.90
4.07
3.13
2.06
0.87
-0.30
-1.35
-2.21
-2.89
-3.49
-4.13
-4.92
-5.85
-6.90
-8.05
-9.30
-10.66
-12.09
-13.38
-14.25
-14.36
-13.49
-11.63
-8.97
-5.82
-2.47
0.93
4.35
7.79
11.21
14.48
17.41
19.81
21.55
22.60
23.02
22.91
22.38
21.58
20.64
19.73
18.99
18.53
18.36
18.44
18.66
18.86
18.93
18.78
18.38
17.74
16.86
15.70
14.24
12.45
10.37
8.09
5.74
3.42
1.22
-0.90
-3.02
-5.25
-7.67
-10.20
-12.70
-14.98
-16.89
-18.41
-19.62
-20.62
-21.53
-22.35
-23.06
-23.60
-23.93
-24.04
-23.93
-23.58
-22.91
-21.83
-20.24
-18.05
-15.26
-12.00
-8.52
-5.16
-2.21
0.12
1.80
2.89
3.54
3.81
3.72
3.25
2.43
1.34
0.14
-1.04
-2.13
-3.12
-4.06
-4.97
-5.87
-6.70
-7.42
-7.98
-8.39
-8.67
-8.88
-9.07
-9.28
-9.50
-9.69
-9.82
-9.82
-9.66
-9.35
-8.90
-8.37
-7.79
-7.18
-6.59
-5.97
-5.29
-4.49
-3.47
-2.13
-0.46
1.53
3.74
5.98
8.09
9.96
11.61
13.12
14.63
16.25
18.01
19.88
21.79
23.72
25.64
27.55
29.40
31.05
32.31
32.99
32.97
32.20
30.71
28.51
25.57
21.86
17.34
12.06
6.19
-0.08
-6.50
-12.82
-18.82
-24.23
-28.75
-32.07
-33.97
-34.41
-33.56
-31.80
-29.52
-27.04
-24.49
-21.82
-18.92
-15.75
-12.46
-9.28
-6.49
-4.27
-2.60
-1.35
-0.34
0.49
1.02
0.99
0.20
-1.40
-3.68
-6.31
-8.97
-11.37
-13.30
-14.51
-14.67
-13.44
-10.64
-6.49
-1.58
3.32
7.58
10.97
13.68
16.10
18.44
20.54
21.89
21.97
20.56
17.90
14.56
11.14
8.05
5.36
2.93
0.67
-1.32
-2.81
-3.47
-3.11
-1.79
0.19
2.41
4.50
6.24
7.62
8.72
9.65
10.43
10.93
10.92
10.22
8.71
6.42
3.51
0.20
-3.24
-6.52
-9.41
-11.69
-13.28
-14.20
-14.64
-14.85
-15.03
-15.29
-15.61
-15.87
-15.94
-15.76
-15.38
-14.86
-14.25
-13.49
-12.48
-11.13
-9.42
-7.46
-5.43
-3.45
-1.55
0.36
2.37
4.49
6.63
8.56
10.09
11.08
11.53
11.54
11.23
10.69
9.99
9.18
8.33
7.56
6.93
6.48
6.14
5.78
5.31
4.67
3.93
3.20
2.58
2.12
1.75
1.34
0.77
0.02
-0.83
-1.63
-2.26
-2.68
-2.97
-3.25
-3.63
-4.10
-4.62
-5.04
-5.30
-5.39
-5.39
-5.41
-5.59
-5.97
-6.61
-7.48
-8.50
-9.57
-10.55
-11.28
-11.58
-11.32
-10.35
-8.65
-6.30
-3.51
-0.55
2.31
4.89
7.12
9.04
10.70
12.14
13.36
14.32
14.98
15.37
15.53
15.54
15.46
15.33
15.19
14.98
14.67
14.16
13.37
12.29
10.92
9.35
7.65
5.89
4.14
2.43
0.84
-0.56
-1.69
-2.50
-3.03
-3.36
-3.64
-4.01
-4.56
-5.33
-6.27
-7.24
-8.15
-8.93
-9.61
-10.30
-11.13
-12.17
-13.38
-14.65
-15.78
-16.61
-17.03
-16.91
-16.19
-14.78
-12.70
-10.06
-7.08
-4.01
-1.05
1.74
4.41
7.04
9.68
12.24
14.53
16.36
17.59
18.24
18.42
18.36
18.26
18.29
18.51
18.91
19.40
19.84
20.13
20.15
19.92
19.43
18.75
17.82
16.50
14.57
11.75
7.87
2.92
-2.88
-9.08
-15.14
-20.56
-25.00
-28.34
-30.70
-32.39
-33.75
-35.03
-36.34
-37.55
-38.47
-38.91
-38.81
-38.27
-37.47
-36.53
-35.48
-34.20
-32.49
-30.18
-27.18
-23.54
-19.35
-14.77
-9.91
-4.95
-0.10
4.37
8.12
10.87
12.44
12.74
11.88
10.09
7.72
5.18
2.86
1.10
0.05
-0.30
-0.17
0.18
0.50
0.64
0.62
0.55
0.50
0.47
0.34
-0.10
-1.07
-2.65
-4.78
-7.18
-9.48
-11.31
-12.44
-12.75
-12.28
-11.20
-9.71
-8.03
-6.35
-4.80
-3.42
-2.18
-1.01
0.17
1.37
2.55
3.59
4.42
4.92
5.05
4.79
4.16
3.26
2.28
1.49
1.14
1.47
2.58
4.46
7.00
10.05
13.52
17.35
21.52
25.93
30.44
34.79
38.67
41.79
43.93
44.94
44.69
43.09
40.06
35.55
29.65
22.52
14.49
5.87
-2.94
-11.53
-19.51
-26.46
-32.09
-36.23
-38.87
-40.13
-40.17
-39.08
-36.85
-33.45
-28.91
-23.41
-17.27
-10.86
-4.53
1.40
6.72
11.24
14.84
17.51
19.37
20.66
21.76
23.00
24.58
26.49
28.45
29.96
30.45
29.43
26.62
22.05
16.14
9.53
3.02
-2.63
-6.91
-9.53
-10.48
-10.00
-8.44
-6.22
-3.75
-1.39
0.60
2.05
2.87
3.05
2.67
1.91
1.02
0.30
-0.06
0.04
0.47
0.98
1.31
1.25
0.81
0.15
-0.50
-0.96
-1.23
-1.43
-1.71
-2.18
-2.79
-3.36
-3.72
-3.78
-3.63
-3.43
-3.32
-3.36
-3.48
-3.57
-3.58
-3.58
-3.67
-3.93
-4.27
-4.52
-4.50
-4.18
-3.73
-3.42
-3.49
-4.00
-4.73
-5.31
-5.32
-4.45
-2.57
0.34
4.16
8.73
13.82
19.11
24.27
28.94
32.87
35.88
37.90
38.93
38.98
38.11
36.42
34.03
31.11
27.73
23.93
19.71
15.04
9.93
4.48
-1.11
-6.59
-11.69
-16.17
-19.87
-22.69
-24.61
-25.73
-26.19
-26.22
-26.07
-25.95
-25.99
-26.20
-26.49
-26.72
-26.81
-26.71
-26.47
-26.15
-25.77
-25.32
-24.72
-23.95
-23.03
-22.06
-21.18
-20.45
-19.91
-19.57
-19.42
-19.47
-19.74
-20.23
-20.88
-21.60
-22.23
-22.56
-22.38
-21.49
-19.76
-17.12
-13.70
-9.76
-5.62
-1.58
2.19
5.67
8.91
11.99
14.92
17.58
19.79
21.41
22.38
22.84
23.00
23.12
23.28
23.43
23.34
22.70
21.30
19.16
16.50
13.71
11.15
9.08
7.55
6.50
5.80
5.41
5.31
5.56
6.17
7.06
8.07
9.00
9.72
10.20
10.49
10.68
10.76
10.63
10.07
8.85
6.81
3.89
0.17
-4.17
-8.88
-13.64
-18.03
-21.64
-24.11
-25.23
-24.97
-23.48
-20.99
-17.75
-13.98
-9.90
-5.69
-1.62
2.09
5.28
7.85
9.83
11.24
12.09
12.38
12.10
11.29
10.03
8.45
6.66
4.75
2.79
0.83
-0.98
-2.52
-3.64
-4.30
-4.55
-4.54
-4.41
-4.28
-4.21
-4.19
-4.21
-4.26
-4.31
-4.26
-3.93
-3.04
-1.35
1.24
4.61
8.43
12.24
15.70
18.62
21.05
23.17
25.13
26.90
28.27
28.75
27.84
25.15
20.52
14.26
7.02
-0.26
-6.58
-11.15
-13.60
-14.12
-13.31
-11.99
-10.89
-10.36
-10.31
-10.33
-9.90
-8.69
-6.63
-3.96
-1.08
1.51
3.35
4.09
3.63
2.26
0.69
-0.10
0.81
3.97
9.31
16.15
23.46
30.17
35.44
38.78
39.96
38.90
35.63
30.26
23.11
14.66
5.54
-3.61
-12.21
-19.85
-26.26
-31.29
-34.89
-37.11
-38.07
-37.98
-37.02
-35.29
-32.81
-29.58
-25.72
-21.64
-17.99
-15.52
-14.86
-16.14
-18.91
-22.14
-24.51
-24.80
-22.29
-16.96
-9.36
-0.41
8.97
18.05
26.30
33.22
38.26
40.89
40.81
38.17
33.40
26.95
18.99
9.34
-2.17
-15.19
-28.57
-40.55
-49.46
-54.34
-55.38
-53.67
-50.56
-47.03
-43.48
-39.84
-35.97
-31.97
-28.14
-24.80
-22.08
-19.87
-17.88
-15.90
-13.94
-12.22
-11.05
-10.62
-10.83
-11.28
-11.39
-10.61
-8.68
-5.75
-2.35
0.84
3.36
5.10
6.42
7.89
10.07
13.24
17.46
22.76
29.30
37.46
47.64
59.88
73.54
87.33
99.59
108.72
113.70
114.20
110.59
103.59
94.10
83.06
71.54
60.54
50.68
41.61
31.75
18.60
-0.18
-25.48
-55.77
-87.20
-114.74
-134.04
-142.80
-141.38
-132.07
-117.85
-101.24
-83.79
-66.37
-49.74
-34.79
-22.48
-13.38
-7.32
-3.37
-0.20
3.36
7.77
12.71
17.30
20.53
21.73
20.77
18.00
14.08
9.67
5.20
0.89
-3.20
-7.03
-10.42
-13.10
-14.69
-14.85
-13.37
-10.30
-5.88
-0.62
4.89
10.07
14.43
17.68
19.74
20.68
20.73
20.24
19.70
19.58
20.27
21.97
24.59
27.88
31.53
35.33
39.20
43.12
46.97
50.41
52.80
53.32
51.16
45.65
36.37
23.20
6.35
-13.59
-35.60
-58.30
-80.03
-99.12
-114.13
-124.03
-128.31
-126.92
-120.28
-109.17
-94.71
-78.24
-61.08
-44.31
-28.64
-14.33
-1.43
10.06
19.94
27.85
33.40
36.40
36.98
35.66
33.21
30.37
27.64
25.09
22.39
18.98
14.40
8.55
1.78
-5.12
-11.16
-15.48
-17.58
-17.40
-15.22
-11.48
-6.57
-0.78
5.67
12.51
19.40
25.97
31.86
36.90
41.14
44.85
48.44
52.24
56.46
61.06
65.81
70.42
74.62
78.32
81.66
84.92
88.39
92.13
95.85
98.77
99.64
97.01
89.46
76.03
56.48
31.37
2.07
-29.47
-60.97
-90.21
-115.28
-134.87
-148.33
-155.69
-157.49
-154.52
-147.58
-137.37
-124.45
-109.42
-93.01
-76.08
-59.50
-43.99
-29.99
-17.68
-7.11
1.73
8.81
14.14
17.85
20.22
21.70
22.68
23.39
23.79
23.67
22.81
21.17
18.95
16.53
14.33
12.70
11.90
12.04
13.18
15.22
17.96
21.09
24.19
26.89
28.93
30.19
30.69
30.53
29.97
29.42
29.47
30.69
33.50
37.98
43.80
50.39
57.18
63.76
70.02
75.98
81.48
85.98
88.50
87.79
82.78
72.82
57.90
38.46
15.24
-10.96
-39.27
-68.58
-97.48
-124.21
-146.99
-164.34
-175.38
-179.87
-178.06
-170.46
-157.73
-140.64
-120.16
-97.51
-74.10
-51.29
-30.24
-11.76
3.74
16.14
25.50
32.01
35.93
37.58
37.34
35.66
32.99
29.78
26.44
23.19
20.14
17.24
14.44
11.76
9.36
7.51
6.54
6.68
8.03
10.49
13.85
17.84
22.25
26.82
31.27
35.23
38.32
40.19
40.73
40.03
38.52
36.75
35.32
34.69
35.13
36.60
38.87
41.60
44.46
47.33
50.28
53.52
57.27
61.45
65.47
68.22
68.16
63.74
53.79
37.88
16.51
-8.97
-36.62
-64.28
-89.92
-111.94
-129.28
-141.39
-148.12
-149.62
-146.18
-138.25
-126.41
-111.38
-94.02
-75.26
-55.91
-36.65
-18.01
-0.46
15.51
29.41
40.76
49.31
55.05
58.24
59.37
58.95
57.52
55.51
53.24
50.94
48.69
46.46
44.13
41.52
38.57
35.29
31.81
28.34
25.08
22.20
19.77
17.86
16.48
15.60
15.02
14.39
13.22
11.10
7.94
4.10
0.40
-2.17
-2.79
-1.10
2.65
7.75
13.41
19.06
24.54
30.09
36.12
43.02
50.85
59.19
67.12
73.29
76.18
74.31
66.66
52.88
33.38
9.32
-17.63
-45.53
-72.50
-96.92
-117.61
-133.78
-145.01
-151.05
-151.82
-147.34
-137.83
-123.75
-105.91
-85.35
-63.30
-40.98
-19.53
0.11
17.18
31.14
41.67
48.74
52.57
53.57
52.25
49.13
44.59
38.85
32.01
24.10
15.32
6.04
-3.13
-11.53
-18.55
-23.88
-27.45
-29.38
-29.78
-28.55
-25.49
-20.36
-13.20
-4.38
5.42
15.37
24.81
33.31
40.72
47.06
52.41
56.87
60.49
63.37
65.64
67.47
69.03
70.49
71.95
73.52
75.23
77.03
78.63
79.41
78.41
74.51
66.68
54.30
37.33
16.26
-8.00
-34.39
-61.71
-88.67
-113.83
-135.71
-152.92
-164.40
-169.62
-168.55
-161.61
-149.42
-132.82
-112.85
-90.77
-68.05
-46.23
-26.70
-10.53
1.65
9.70
13.90
14.89
13.62
11.18
8.67
7.05
6.95
8.54
11.54
15.35
19.30
22.86
25.77
27.99
29.58
30.60
31.04
30.91
30.43
30.04
30.36
31.96
35.04
39.33
44.23
48.99
53.05
56.13
58.27
59.66
60.46
60.76
60.60
60.00
59.09
58.08
57.25
56.86
57.16
58.36
60.60
63.90
68.01
72.29
75.59
76.46
73.34
64.98
50.83
31.19
7.11
-19.97
-48.59
-77.51
-105.67
-131.98
-155.10
-173.55
-185.94
-191.39
-189.73
-181.46
-167.55
-149.13
-127.36
-103.48
-78.87
-55.04
-33.44
-15.19
-0.78
9.88
17.38
22.55
26.20
29.07
31.69
34.38
37.24
40.15
42.83
44.89
46.03
46.07
45.10
43.37
41.27
39.22
37.59
36.63
36.57
37.53
39.52
42.49
46.25
50.45
54.66
58.49
61.60
63.88
65.32
65.98
65.89
65.02
63.31
60.77
57.52
53.84
50.07
46.53
43.50
41.11
39.31
37.74
35.69
32.10
25.77
15.65
1.14
-17.67
-39.98
-64.56
-89.96
-114.74
-137.67
-157.64
-173.65
-184.82
-190.37
-189.78
-182.87
-169.90
-151.63
-129.24
-104.20
-78.12
-52.56
-28.86
-7.98
9.48
23.38
33.95
41.76
47.50
51.88
55.47
58.61
61.43
63.82
65.60
66.52
66.31
64.77
61.80
57.44
51.98
45.79
39.39
33.24
27.77
23.34
20.26
18.79
19.10
21.15
24.61
28.97
33.66
38.15
42.16
45.60
48.51
50.97
53.00
54.59
55.77
56.65
57.51
58.70
60.51
63.15
66.66
70.89
75.56
80.26
84.37
87.06
87.27
83.84
75.83
62.75
44.82
22.93
-1.63
-27.54
-53.66
-79.06
-102.88
-124.10
-141.68
-154.64
-162.49
-165.35
-163.87
-158.91
-151.20
-141.17
-129.01
-114.98
-99.61
-83.78
-68.56
-54.92
-43.46
-34.35
-27.34
-21.88
-17.34
-13.08
-8.62
-3.66
1.87
7.78
13.65
18.97
23.27
26.27
27.95
28.53
28.38
27.89
27.41
27.24
27.64
28.83
30.97
34.01
37.75
41.78
45.65
49.04
51.82
54.07
55.98
57.76
59.52
61.32
63.13
64.87
66.46
67.80
68.83
69.59
70.28
71.10
72.10
72.91
72.63
69.89
63.21
51.54
34.62
13.23
-11.05
-36.17
-60.13
-81.35
-98.82
-112.09
-121.07
-125.91
-126.86
-124.26
-118.45
-109.87
-99.03
-86.53
-73.09
-59.46
-46.38
-34.54
-24.43
-16.36
-10.40
-6.44
-4.15
-3.06
-2.59
-2.18
-1.44
-0.24
1.18
2.33
2.63
1.72
-0.44
-3.51
-6.92
-9.96
-12.00
-12.58
-11.43
-8.51
-4.00
1.71
8.08
14.44
20.21
24.94
28.41
30.75
32.34
33.78
35.67
38.46
42.32
47.13
52.56
58.25
63.97
69.70
75.50
81.47
87.56
93.43
98.46
101.71
102.03
98.32
89.84
76.46
58.73
37.81
15.16
-7.71
-29.51
-49.24
-66.19
-79.90
-90.22
-97.27
-101.38
-102.93
-102.21
-99.32
-94.23
-86.95
-77.78
-67.36
-56.69
-46.89
-38.98
-33.62
-30.99
-30.73
-32.05
-33.95
-35.45
-35.87
-34.99
-33.00
-30.38
-27.60
-24.97
-22.52
-20.01
-17.04
-13.23
-8.26
-2.00
5.60
14.42
24.23
34.71
45.42
55.96
65.97
75.16
83.36
90.45
96.34
100.96
104.27
106.24
106.93
106.40
104.75
102.12
98.65
94.54
90.00
85.19
80.16
74.85
69.09
62.75
55.77
48.19
39.95
30.76
20.09
7.34
-7.79
-25.15
-44.14
-64.01
-84.14
-104.18
-123.89
-142.81
-160.15
-174.79
-185.59
-191.70
-192.70
-188.47
-179.08
-164.69
-145.67
-122.77
-97.26
-70.81
-45.21
-22.04
-2.41
13.16
24.71
32.69
37.78
40.76
42.38
43.38
44.35
45.70
47.56
49.73
51.72
52.90
52.79
51.23
48.52
45.26
42.20
39.94
38.80
38.83
39.93
41.93
44.66
48.00
51.71
55.56
59.20
62.28
64.55
65.83
66.07
65.35
63.83
61.74
59.34
56.80
54.16
51.31
48.04
44.19
39.75
34.98
30.27
26.04
22.59
19.98
17.97
16.01
13.30
8.90
1.93
-8.22
-21.57
-37.54
-54.98
-72.47
-88.60
-102.32
-113.01
-120.54
-125.08
-126.87
-126.05
-122.59
-116.35
-107.23
-95.31
-81.03
-65.18
-48.74
-32.70
-17.92
-5.10
5.26
12.88
17.69
19.92
20.11
19.01
17.47
16.15
15.42
15.25
15.37
15.36
14.86
13.69
11.85
9.46
6.63
3.49
0.09
-3.51
-7.22
-10.81
-13.96
-16.26
-17.29
-16.75
-14.47
-10.50
-5.11
1.31
8.26
15.30
22.07
28.33
33.93
38.81
42.90
46.18
48.67
50.48
51.85
53.01
54.18
55.44
56.73
57.81
58.40
58.20
56.97
54.55
50.89
46.00
40.00
33.14
25.72
18.02
10.19
2.17
-6.25
-15.29
-24.99
-35.10
-45.09
-54.32
-62.26
-68.69
-73.66
-77.33
-79.70
-80.51
-79.29
-75.62
-69.35
-60.75
-50.46
-39.30
-28.07
-17.45
-7.93
0.21
6.84
11.99
15.80
18.54
20.47
21.87
22.93
23.74
24.31
24.49
24.01
22.48
19.54
15.00
8.98
1.95
-5.38
-12.23
-17.99
-22.30
-25.13
-26.63
-27.07
-26.68
-25.66
-24.20
-22.43
-20.54
-18.66
-16.89
-15.29
-13.87
-12.61
-11.49
-10.46
-9.45
-8.38
-7.14
-5.62
-3.71
-1.27
1.79
5.51
9.79
14.42
19.05
23.29
26.80
29.39
31.04
31.86
32.07
31.83
31.33
30.66
29.87
29.00
28.04
26.95
25.72
24.30
22.70
20.90
18.85
16.46
13.61
10.20
6.24
1.78
-3.05
-8.11
-13.27
-18.34
-23.04
-27.05
-30.06
-31.86
-32.44
-32.00
-30.83
-29.21
-27.30
-25.11
-22.57
-19.61
-16.21
-12.46
-8.53
-4.56
-0.64
3.18
6.93
10.56
13.94
16.86
19.11
20.56
21.21
21.16
20.55
19.46
17.95
16.00
13.63
10.87
7.82
4.53
1.07
-2.53
-6.17
-9.64
-12.61
-14.74
-15.76
-15.59
-14.36
-12.35
-9.89
-7.23
-4.49
-1.70
1.13
3.89
6.45
8.66
10.47
11.96
13.21
14.27
15.07
15.41
15.16
14.31
13.03
11.62
10.34
9.34
8.61
8.06
7.58
7.11
6.66
6.20
5.72
5.20
4.61
3.95
3.26
2.55
1.84
1.15
0.40
-0.44
-1.44
-2.63
-3.99
-5.49
-7.07
-8.63
-10.17
-11.72
-13.36
-15.15
-17.11
-19.16
-21.13
-22.79
-23.85
-24.12
-23.51
-22.00
-19.74
-16.93
-13.77
-10.39
-6.89
-3.35
0.13
3.39
6.31
8.85
11.04
12.98
14.76
16.38
17.74
18.67
19.05
18.89
18.36
17.67
17.00
16.44
15.93
15.38
14.68
13.84
12.89
11.91
10.92
9.92
8.86
7.72
6.52
5.27
4.05
2.89
1.81
0.82
-0.06
-0.87
-1.70
-2.62
-3.71
-4.94
-6.20
-7.36
-8.34
-9.15
-9.89
-10.71
-11.63
-12.58
-13.39
-13.87
-13.89
-13.43
-12.50
-11.15
-9.41
-7.33
-4.96
-2.44
0.11
2.53
4.72
6.60
8.11
9.25
10.05
10.52
10.71
10.69
10.48
10.10
9.55
8.81
7.91
6.92
5.94
5.05
4.32
3.76
3.33
2.92
2.42
1.73
0.82
-0.26
-1.41
-2.49
-3.38
-4.03
-4.43
-4.66
-4.83
-5.03
-5.35
-5.83
-6.49
-7.26
-8.09
-8.86
-9.53
-10.16
-10.86
-11.75
-12.87
-14.16
-15.42
-16.39
-16.85
-16.68
-15.86
-14.44
-12.49
-10.10
-7.34
-4.38
-1.38
1.49
4.12
6.55
8.83
10.98
12.94
14.56
15.67
16.21
16.24
15.93
15.47
14.96
14.37
13.62
12.64
11.47
10.26
9.18
8.33
7.74
7.30
6.90
6.44
5.90
5.27
4.60
3.92
3.25
2.57
1.90
1.21
0.49
-0.31
-1.21
-2.20
-3.24
-4.27
-5.24
-6.13
-6.96
-7.78
-8.63
-9.49
-10.32
-10.99
-11.35
-11.24
-10.53
-9.12
-7.00
-4.23
-0.90
2.86
6.91
11.15
15.51
19.89
24.20
28.36
32.28
35.88
39.16
42.15
44.91
47.56
50.23
53.06
56.21
59.86
64.10
68.97
74.35
80.07
86.00
92.08
98.43
105.26
112.78
121.01
129.67
138.15
145.64
151.29
154.47
154.82
152.23
146.77
138.57
127.75
114.35
98.40
80.00
59.46
37.42
14.97
-6.56
-25.75
-41.46
-53.09
-60.78
-65.16
-67.05
-67.21
-66.14
-63.98
-60.82
-56.70
-51.65
-45.93
-40.07
-34.69
-30.41
-27.52
-25.83
-25.01
-24.72
-24.85
-25.89
-28.53
-33.15
-39.46
-46.36
-51.98
-54.78
-53.85
-49.18
-42.49
-36.23
-32.61
-32.75
-36.17
-40.40
-43.23
-43.03
-39.12
-33.73
-30.38
-32.36
-41.34
-56.71
-74.55
-91.89
-106.36
-116.23
-123.25
-130.33
-140.13
-154.07
-172.07
-191.11
-210.89
-231.85
-253.68
-278.51
-308.39
-344.22
-385.50
-430.51
-474.27
-515.72
-554.66
-569.05
-540.76
-460.89
-335.75
-185.49
-51.95
55.00
136.75
198.36
245.03
280.82
304.63
314.71
311.23
297.33
280.93
266.26
255.07
247.69
241.66
234.85
227.77
223.36
225.12
236.68
255.48
275.88
292.54
300.93
298.67
285.72
263.14
232.41
196.64
157.92
118.82
82.68
51.70
26.27
5.34
-12.67
-28.80
-42.32
-52.56
-58.91
-61.11
-59.86
-56.66
-53.03
-50.14
-48.41
-47.30
-46.16
-44.38
-41.56
-37.71
-33.21
-28.52
-24.03
-19.86
-15.95
-12.16
-8.51
-5.29
-2.98
-2.16
-3.29
-6.54
-11.75
-18.47
-26.17
-34.36
-42.68
-50.93
-58.94
-66.59
-73.71
-80.11
-85.63
-90.08
-93.22
-94.72
-94.17
-91.26
-86.00
-78.76
-70.33
-61.70
-53.75
-47.06
-41.72
-37.48
-33.85
-30.32
-26.53
-22.36
-17.92
-13.50
-9.52
-6.41
-4.54
-4.19
-5.51
-8.49
-13.02
-18.84
-25.51
-32.47
-39.03
-44.48
-48.22
-49.85
-49.26
-46.54
-41.96
-35.79
-28.23
-19.50
-9.80
0.52
10.98
21.06
30.26
38.30
45.08
50.64
55.07
58.44
60.77
62.11
62.61
62.52
62.12
61.63
61.14
60.52
59.58
58.05
55.77
52.66
48.80
44.36
39.57
34.68
29.88
25.29
20.87
16.48
11.94
7.15
2.13
-2.93
-7.80
-12.25
-16.24
-19.86
-23.31
-26.77
-30.36
-34.01
-37.56
-40.73
-43.23
-44.79
-45.18
-44.25
-41.86
-37.97
-32.67
-26.18
-18.88
-11.25
-3.75
3.26
9.51
14.91
19.39
22.93
25.53
27.18
27.91
27.83
27.06
25.67
23.72
21.25
18.30
15.01
11.49
7.89
4.34
0.95
-2.14
-4.71
-6.54
-7.39
-7.11
-5.67
-3.20
0.07
3.82
7.74
11.53
14.96
17.88
20.21
21.92
22.98
23.30
22.82
21.44
19.13
15.90
11.80
6.88
1.18
-5.24
-12.24
-19.54
-26.73
-33.32
-38.86
-43.00
-45.56
-46.48
-45.80
-43.59
-39.99
-35.18
-29.37
-22.80
-15.74
-8.43
-1.18
5.68
11.85
17.06
21.21
24.38
26.77
28.67
30.28
31.72
33.04
34.24
35.32
36.27
37.07
37.62
37.84
37.65
37.06
36.15
35.05
33.92
32.80
31.65
30.36
28.81
26.86
24.51
21.80
18.82
15.63
12.25
8.66
4.78
0.58
-3.92
-8.64
-13.42
-18.11
-22.59
-26.81
-30.81
-34.67
-38.40
-41.90
-44.83
-46.72
-47.12
-45.72
-42.54
-37.81
-31.97
-25.47
-18.63
-11.67
-4.76
1.87
8.00
13.38
17.89
21.56
24.50
26.86
28.74
30.14
30.98
31.20
30.80
29.90
28.71
27.47
26.39
25.55
24.87
24.19
23.28
22.01
20.34
18.38
16.24
14.03
11.79
9.54
7.31
5.17
3.20
1.44
-0.17
-1.77
-3.47
-5.34
-7.35
-9.41
-11.40
-13.30
-15.10
-16.88
-18.74
-20.77
-23.06
-25.61
-28.35
-31.05
-33.38
-34.97
-35.57
-35.01
-33.30
-30.50
-26.72
-22.02
-16.49
-10.24
-3.50
3.47
10.36
16.90
22.87
28.08
32.34
35.51
37.51
38.37
38.25
37.39
36.06
34.47
32.77
31.03
29.35
27.82
26.52
25.46
24.55
23.64
22.54
21.22
19.80
18.50
17.58
17.13
17.07
17.19
17.24
17.08
16.67
16.08
15.39
14.62
13.70
12.56
11.15
9.48
7.63
5.64
3.49
1.09
-1.69
-5.03
-9.01
-13.63
-18.81
-24.27
-29.66
-34.56
-38.53
-41.21
-42.40
-42.05
-40.30
-37.43
-33.76
-29.61
-25.22
-20.71
-16.11
-11.41
-6.60
-1.75
2.99
7.38
11.16
14.10
16.05
16.93
16.76
15.67
13.81
11.38
8.57
5.58
2.54
-0.45
-3.39
-6.32
-9.27
-12.20
-14.94
-17.25
-18.84
-19.47
-19.04
-17.60
-15.36
-12.58
-9.56
-6.50
-3.62
-1.03
1.19
3.01
4.45
5.54
6.38
6.97
7.35
7.51
7.45
7.21
6.87
6.57
6.51
6.90
7.92
9.68
12.13
15.08
18.26
21.35
24.05
26.18
27.60
28.28
28.21
27.36
25.68
23.09
19.54
15.14
10.11
4.80
-0.39
-5.13
-9.23
-12.64
-15.36
-17.36
-18.55
-18.86
-18.25
-16.81
-14.76
-12.35
-9.79
-7.20
-4.60
-1.98
0.64
3.21
5.64
7.81
9.65
11.12
12.26
13.12
13.77
14.22
14.41
14.20
13.45
12.05
10.00
7.40
4.40
1.17
-2.16
-5.45
-8.57
-11.34
-13.55
-14.96
-15.39
-14.75
-13.05
-10.42
-7.07
-3.27
0.66
4.43
7.80
10.65
12.98
14.87
16.45
17.80
18.92
19.76
20.21
20.19
19.61
18.49
16.89
14.98
13.02
11.32
10.11
9.54
9.59
10.12
10.92
11.78
12.54
13.11
13.44
13.49
13.22
12.62
11.61
10.13
8.11
5.51
2.38
-1.17
-4.90
-8.58
-12.01
-15.13
-18.01
-20.78
-23.60
-26.54
-29.60
-32.64
-35.48
-37.85
-39.50
-40.20
-39.77
-38.15
-35.40
-31.66
-27.19
-22.24
-17.11
-12.07
-7.37
-3.25
0.12
2.64
4.34
5.28
5.58
5.35
4.71
3.79
2.75
1.77
0.98
0.48
0.26
0.27
0.44
0.78
1.32
2.16
3.38
4.94
6.78
8.74
10.74
12.71
14.70
16.72
18.77
20.81
22.77
24.62
26.35
28.05
29.79
31.57
33.30
34.85
36.06
36.80
37.02
36.63
35.53
33.63
30.85
27.16
22.66
17.58
12.15
6.63
1.18
-4.13
-9.30
-14.35
-19.27
-24.05
-28.64
-32.93
-36.75
-39.90
-42.18
-43.49
-43.91
-43.66
-43.03
-42.21
-41.16
-39.52
-36.71
-32.08
-25.23
-16.06
-4.94
7.36
19.84
31.43
41.26
48.75
53.71
56.22
56.55
55.02
51.97
47.72
42.63
37.04
31.26
25.49
19.80
14.17
8.57
3.08
-2.10
-6.69
-10.53
-13.58
-16.03
-18.21
-20.41
-22.85
-25.54
-28.37
-31.11
-33.55
-35.48
-36.82
-37.47
-37.35
-36.41
-34.63
-32.08
-28.89
-25.29
-21.45
-17.47
-13.32
-8.92
-4.23
0.65
5.51
10.07
14.14
17.72
20.94
23.98
26.89
29.61
31.90
33.55
34.45
34.68
34.43
33.89
33.21
32.41
31.45
30.26
28.81
27.09
25.12
22.92
20.45
17.71
14.73
11.61
8.46
5.41
2.52
-0.18
-2.71
-5.09
-7.38
-9.56
-11.62
-13.50
-15.13
-16.49
-17.60
-18.54
-19.37
-20.12
-20.71
-21.03
-20.94
-20.45
-19.65
-18.73
-17.81
-16.96
-16.06
-14.88
-13.19
-10.80
-7.67
-3.97
-0.05
3.68
6.84
9.23
10.83
11.79
12.29
12.46
12.41
12.18
11.86
11.55
11.35
11.30
11.30
11.14
10.57
9.39
7.52
5.00
1.98
-1.37
-4.90
-8.53
-12.22
-15.89
-19.44
-22.74
-25.70
-28.28
-30.52
-32.52
-34.29
-35.78
-36.86
-37.36
-37.27
-36.67
-35.73
-34.62
-33.34
-31.74
-29.56
-26.57
-22.70
-18.07
-12.92
-7.51
-1.99
3.63
9.39
15.38
21.58
27.90
34.12
39.99
45.25
49.69
53.22
55.79
57.38
57.93
57.35
55.60
52.70
48.87
44.50
40.02
35.77
31.92
28.41
25.07
21.72
18.26
14.72
11.21
7.86
4.73
1.82
-0.99
-3.86
-6.96
-10.46
-14.43
-18.85
-23.63
-28.55
-33.28
-37.44
-40.62
-42.54
-43.07
-42.27
-40.36
-37.60
-34.18
-30.24
-25.80
-20.89
-15.57
-10.01
-4.37
1.14
6.35
11.15
15.42
19.08
22.07
24.37
26.02
27.07
27.56
27.43
26.62
25.08
22.86
20.10
17.05
13.92
10.85
7.89
5.01
2.21
-0.44
-2.83
-4.85
-6.53
-7.98
-9.43
-11.04
-12.89
-14.87
-16.78
-18.36
-19.41
-19.88
-19.81
-19.34
-18.61
-17.76
-16.90
-16.12
-15.52
-15.15
-15.05
-15.22
-15.60
-16.08
-16.47
-16.58
-16.20
-15.17
-13.39
-10.85
-7.62
-3.85
0.28
4.56
8.74
12.59
15.93
18.63
20.65
22.00
22.69
22.72
22.05
20.68
18.62
15.98
12.91
9.57
6.13
2.75
-0.43
-3.27
-5.67
-7.57
-8.93
-9.72
-9.95
-9.63
-8.81
-7.58
-6.10
-4.54
-3.00
-1.55
-0.19
1.13
2.43
3.71
4.97
6.19
7.35
8.45
9.49
10.51
11.49
12.43
13.24
13.76
13.79
13.19
11.90
10.06
7.93
5.83
4.08
2.82
2.06
1.69
1.59
1.66
1.87
2.21
2.70
3.28
3.87
4.39
4.76
4.96
4.94
4.68
4.11
3.15
1.79
0.08
-1.82
-3.66
-5.14
-5.98
-6.02
-5.21
-3.68
-1.63
0.69
3.10
5.50
7.82
9.99
11.90
13.41
14.39
14.79
14.68
14.14
13.25
12.02
10.47
8.62
6.54
4.32
1.96
-0.63
-3.66
-7.27
-11.46
-16.06
-20.75
-25.20
-29.15
-32.45
-35.03
-36.87
-37.92
-38.24
-37.89
-37.00
-35.71
-34.08
-32.13
-29.84
-27.21
-24.28
-21.14
-17.92
-14.75
-11.70
-8.81
-6.05
-3.35
-0.63
2.20
5.22
8.50
12.04
15.74
19.46
22.99
26.15
28.83
31.01
32.75
34.10
35.06
35.58
35.60
35.14
34.37
33.52
32.86
32.53
32.52
32.65
32.65
32.24
31.22
29.48
26.97
23.66
19.64
15.02
10.01
4.82
-0.44
-5.75
-11.18
-16.70
-22.17
-27.14
-31.06
-33.37
-33.75
-32.28
-29.31
-25.42
-21.17
-17.02
-13.21
-9.86
-6.95
-4.39
-2.09
0.01
1.93
3.66
5.18
6.58
8.00
9.63
11.60
13.89
16.29
18.51
20.30
21.58
22.47
23.25
24.16
25.29
26.46
27.30
27.28
25.84
22.53
17.16
9.82
1.01
-8.44
-17.64
-25.80
-32.51
-37.79
-42.02
-45.58
-48.74
-51.55
-53.88
-55.61
-56.69
-57.19
-57.17
-56.61
-55.38
-53.32
-50.29
-46.27
-41.33
-35.58
-29.23
-22.49
-15.60
-8.77
-2.23
3.90
9.51
14.51
18.86
22.50
25.46
27.78
29.55
30.86
31.74
32.16
32.05
31.39
30.15
28.44
26.37
24.11
21.83
19.64
17.62
15.75
14.00
12.29
10.56
8.83
7.09
5.45
3.95
2.64
1.46
0.37
-0.74
-1.91
-3.11
-4.29
-5.38
-6.35
-7.26
-8.18
-9.21
-10.37
-11.63
-12.86
-13.99
-14.93
-15.74
-16.48
-17.24
-18.05
-18.83
-19.40
-19.53
-19.06
-17.93
-16.21
-14.04
-11.52
-8.76
-5.81
-2.72
0.39
3.37
6.04
8.28
10.03
11.32
12.19
12.65
12.73
12.46
11.91
11.18
10.41
9.71
9.13
8.66
8.28
8.00
7.84
7.80
7.82
7.74
7.41
6.73
5.74
4.58
3.46
2.57
1.96
1.57
1.24
0.82
0.19
-0.65
-1.66
-2.77
-3.90
-5.01
-6.06
-7.03
-7.91
-8.72
-9.52
-10.35
-11.27
-12.32
-13.47
-14.68
-15.84
-16.85
-17.55
-17.80
-17.45
-16.42
-14.64
-12.19
-9.21
-5.96
-2.72
0.29
2.91
5.10
6.92
8.46
9.80
10.96
11.95
12.75
13.37
13.76
13.92
13.78
13.31
12.55
11.59
10.57
9.61
8.78
8.07
7.43
6.75
6.02
5.27
4.57
3.96
3.40
2.83
2.17
1.40
0.55
-0.33
-1.15
-1.90
-2.64
-3.48
-4.53
-5.82
-7.27
-8.76
-10.14
-11.31
-12.26
-13.02
-13.64
-14.16
-14.63
-15.10
-15.66
-16.34
-17.11
-17.81
-18.14
-17.83
-16.70
-14.74
-12.18
-9.28
-6.31
-3.44
-0.75
1.74
4.04
6.12
7.95
9.51
10.75
11.65
12.22
12.47
12.46
12.24
11.89
11.49
11.06
10.65
10.26
9.86
9.43
8.89
8.20
7.36
6.39
5.38
4.41
3.53
2.78
2.18
1.73
1.44
1.31
1.30
1.33
1.28
1.04
0.55
-0.17
-1.00
-1.81
-2.47
-2.93
-3.20
-3.37
-3.55
-3.82
-4.28
-5.00
-6.07
-7.55
-9.39
-11.43
-13.33
-14.76
-15.42
-15.21
-14.20
-12.57
-10.57
-8.40
-6.20
-4.04
-1.95
0.08
2.12
4.22
6.44
8.72
10.96
12.95
14.58
15.79
16.62
17.18
17.58
17.89
18.15
18.39
18.63
18.91
19.20
19.44
19.52
19.28
18.62
17.50
16.01
14.29
12.48
10.65
8.73
6.56
3.93
0.76
-2.90
-6.72
-10.29
-13.22
-15.33
-16.72
-17.64
-18.38
-19.11
-19.80
-20.33
-20.59
-20.59
-20.42
-20.20
-20.04
-19.96
-19.95
-19.97
-19.97
-19.85
-19.51
-18.78
-17.57
-15.86
-13.75
-11.41
-8.99
-6.58
-4.16
-1.65
0.98
3.71
6.40
8.90
11.06
12.79
14.12
15.08
15.71
16.02
16.03
15.73
15.15
14.38
13.53
12.72
12.04
11.53
11.14
10.77
10.28
9.60
8.73
7.75
6.78
5.93
5.21
4.57
3.94
3.28
2.60
1.96
1.38
0.82
0.17
-0.70
-1.84
-3.28
-4.93
-6.68
-8.37
-9.87
-11.12
-12.10
-12.86
-13.47
-14.00
-14.48
-14.86
-15.04
-14.88
-14.24
-13.05
-11.34
-9.25
-6.95
-4.62
-2.39
-0.31
1.62
3.42
5.08
6.58
7.83
8.76
9.36
9.67
9.78
9.81
9.84
9.91
10.01
10.11
10.14
10.05
9.79
9.34
8.75
8.12
7.58
7.25
7.14
7.15
7.14
6.97
6.56
5.90
5.02
3.90
2.59
1.16
-0.22
-1.31
-1.89
-1.89
-1.44
-0.84
-0.45
-0.53
-1.23
-2.53
-4.26
-6.26
-8.35
-10.37
-12.20
-13.79
-15.13
-16.27
-17.27
-18.19
-18.98
-19.53
-19.62
-19.03
-17.59
-15.27
-12.17
-8.56
-4.77
-1.14
2.06
4.68
6.68
8.13
9.13
9.78
10.19
10.41
10.47
10.39
10.22
10.00
9.76
9.54
9.32
9.02
8.54
7.81
6.80
5.56
4.17
2.74
1.30
-0.13
-1.60
-3.17
-4.78
-6.31
-7.56
-8.37
-8.70
-8.61
-8.27
-7.88
-7.56
-7.33
-7.12
-6.83
-6.42
-5.92
-5.40
-4.99
-4.70
-4.50
-4.31
-4.03
-3.65
-3.21
-2.82
-2.55
-2.39
-2.21
-1.85
-1.14
0.03
1.65
3.61
5.74
7.82
9.64
11.03
11.91
12.33
12.42
12.34
12.19
12.00
11.70
11.22
10.48
9.53
8.43
7.27
6.10
4.94
3.81
2.74
1.78
0.97
0.34
-0.17
-0.59
-1.01
-1.45
-1.93
-2.40
-2.77
-3.00
-3.06
-2.99
-2.88
-2.85
-2.96
-3.24
-3.64
-4.10
-4.58
-5.05
-5.57
-6.14
-6.75
-7.36
-7.93
-8.50
-9.15
-9.99
-11.02
-12.11
-13.04
-13.53
-13.42
-12.70
-11.44
-9.78
-7.83
-5.67
-3.38
-1.12
0.95
2.65
3.92
4.78
5.37
5.79
6.08
6.17
5.99
5.55
4.95
4.37
3.97
3.82
3.90
4.11
4.41
4.74
5.15
5.68
6.36
7.15
8.00
8.80
9.41
9.76
9.77
9.49
9.03
8.55
8.17
7.97
7.93
7.98
8.05
8.09
8.12
8.21
8.43
8.89
9.65
10.74
12.17
13.89
15.82
17.88
19.99
22.07
24.10
26.13
28.26
30.61
33.22
35.82
37.82
38.39
36.71
32.26
25.16
16.15
6.48
-2.47
-9.58
-14.17
-16.11
-15.69
-13.49
-10.24
-6.78
-3.92
-2.34
-2.41
-4.13
-7.08
-10.59
-14.02
-16.87
-18.94
-20.30
-21.19
-21.84
-22.53
-23.44
-24.68
-26.28
-28.14
-30.04
-31.71
-32.84
-33.20
-32.69
-31.40
-29.56
-27.48
-25.50
-23.89
-22.83
-22.27
-22.08
-21.96
-21.56
-20.57
-18.74
-15.91
-12.06
-7.28
-1.74
4.43
11.16
18.53
26.76
36.09
46.68
58.29
70.12
80.83
88.72
92.20
90.24
82.66
70.11
53.90
35.66
17.07
-0.31
-15.15
-26.53
-34.10
-38.17
-39.61
-39.58
-39.11
-38.78
-38.70
-38.67
-38.42
-37.81
-36.85
-35.63
-34.20
-32.57
-30.67
-28.41
-25.76
-22.69
-19.22
-15.45
-11.48
-7.45
-3.49
0.29
3.84
7.20
10.37
13.41
16.29
19.03
21.65
24.23
26.92
29.86
33.12
36.69
40.33
43.58
45.77
46.09
43.79
38.39
29.86
18.68
5.76
-7.77
-20.77
-32.38
-42.10
-49.86
-55.87
-60.47
-63.95
-66.44
-67.91
-68.23
-67.29
-65.09
-61.76
-57.51
-52.56
-47.14
-41.41
-35.60
-29.94
-24.66
-19.95
-15.87
-12.29
-9.03
-5.90
-2.87
-0.09
2.15
3.62
4.24
4.16
3.77
3.42
3.39
3.69
4.12
4.40
4.32
3.84
3.04
2.12
1.26
0.61
0.29
0.40
1.03
2.20
3.86
5.87
8.06
10.30
12.55
14.86
17.28
19.84
22.45
24.90
26.90
28.15
28.44
27.65
25.75
22.83
19.07
14.73
10.16
5.74
1.76
-1.59
-4.28
-6.40
-8.11
-9.54
-10.74
-11.67
-12.30
-12.66
-12.86
-13.09
-13.43
-13.79
-13.79
-12.94
-10.72
-6.91
-1.67
4.46
10.85
16.92
22.41
27.25
31.42
34.68
36.56
36.43
33.81
28.62
21.26
12.53
3.34
-5.47
-13.27
-19.67
-24.45
-27.51
-28.91
-28.80
-27.50
-25.38
-22.84
-20.20
-17.65
-15.28
-13.11
-11.20
-9.57
-8.29
-7.37
-6.76
-6.34
-5.91
-5.28
-4.29
-2.90
-1.23
0.46
1.70
1.92
0.63
-2.40
-6.91
-12.16
-17.11
-20.70
-22.23
-21.51
-18.84
-14.79
-9.95
-4.81
0.39
5.44
10.21
14.48
18.01
20.65
22.32
23.12
23.23
22.93
22.43
21.84
21.11
20.14
18.83
17.18
15.43
13.91
12.95
12.77
13.31
14.31
15.34
16.02
16.08
15.54
14.63
13.72
13.17
13.19
13.67
14.16
13.92
12.05
7.79
0.78
-8.67
-19.57
-30.39
-39.46
-45.44
-47.67
-46.30
-42.12
-36.23
-29.65
-23.13
-17.13
-11.97
-7.92
-5.22
-4.01
-4.16
-5.21
-6.50
-7.42
-7.69
-7.42
-7.09
-7.25
-8.29
-10.29
-13.01
-16.03
-18.96
-21.54
-23.63
-25.19
-26.21
-26.66
-26.47
-25.65
-24.21
-22.27
-19.96
-17.38
-14.56
-11.43
-7.80
-3.47
1.75
7.91
14.91
22.53
30.36
37.89
44.54
49.76
53.20
54.80
54.87
53.97
52.78
51.81
51.34
51.39
51.86
52.63
53.68
54.94
56.30
57.53
58.35
58.49
57.83
56.37
54.12
50.98
46.76
41.23
34.27
25.92
16.41
6.03
-4.92
-16.13
